Created as New Dataset,EVA (40% vinyl acetate) Sigma
cm-1,%T
4000.00,99.85
3999.00,99.84
3998.00,99.84
3997.00,99.85
3996.00,99.85
3995.00,99.85
3994.00,99.85
3993.00,99.85
3992.00,99.85
3991.00,99.84
3990.00,99.84
3989.00,99.84
3988.00,99.84
3987.00,99.84
3986.00,99.84
3985.00,99.84
3984.00,99.84
3983.00,99.84
3982.00,99.84
3981.00,99.84
3980.00,99.84
3979.00,99.84
3978.00,99.84
3977.00,99.84
3976.00,99.84
3975.00,99.84
3974.00,99.84
3973.00,99.85
3972.00,99.85
3971.00,99.85
3970.00,99.85
3969.00,99.85
3968.00,99.85
3967.00,99.85
3966.00,99.85
3965.00,99.85
3964.00,99.85
3963.00,99.85
3962.00,99.85
3961.00,99.85
3960.00,99.85
3959.00,99.85
3958.00,99.85
3957.00,99.86
3956.00,99.86
3955.00,99.86
3954.00,99.86
3953.00,99.86
3952.00,99.86
3951.00,99.86
3950.00,99.86
3949.00,99.86
3948.00,99.86
3947.00,99.86
3946.00,99.86
3945.00,99.86
3944.00,99.86
3943.00,99.86
3942.00,99.86
3941.00,99.86
3940.00,99.86
3939.00,99.86
3938.00,99.86
3937.00,99.86
3936.00,99.86
3935.00,99.86
3934.00,99.86
3933.00,99.86
3932.00,99.86
3931.00,99.87
3930.00,99.86
3929.00,99.86
3928.00,99.86
3927.00,99.86
3926.00,99.86
3925.00,99.86
3924.00,99.87
3923.00,99.86
3922.00,99.86
3921.00,99.86
3920.00,99.86
3919.00,99.86
3918.00,99.86
3917.00,99.87
3916.00,99.87
3915.00,99.87
3914.00,99.87
3913.00,99.87
3912.00,99.88
3911.00,99.87
3910.00,99.87
3909.00,99.87
3908.00,99.87
3907.00,99.86
3906.00,99.86
3905.00,99.86
3904.00,99.86
3903.00,99.86
3902.00,99.86
3901.00,99.86
3900.00,99.86
3899.00,99.86
3898.00,99.86
3897.00,99.86
3896.00,99.87
3895.00,99.87
3894.00,99.87
3893.00,99.87
3892.00,99.87
3891.00,99.87
3890.00,99.87
3889.00,99.87
3888.00,99.86
3887.00,99.86
3886.00,99.86
3885.00,99.86
3884.00,99.86
3883.00,99.86
3882.00,99.86
3881.00,99.87
3880.00,99.87
3879.00,99.87
3878.00,99.87
3877.00,99.86
3876.00,99.86
3875.00,99.87
3874.00,99.87
3873.00,99.87
3872.00,99.87
3871.00,99.87
3870.00,99.87
3869.00,99.87
3868.00,99.87
3867.00,99.87
3866.00,99.87
3865.00,99.87
3864.00,99.87
3863.00,99.87
3862.00,99.87
3861.00,99.87
3860.00,99.87
3859.00,99.87
3858.00,99.87
3857.00,99.87
3856.00,99.87
3855.00,99.87
3854.00,99.88
3853.00,99.88
3852.00,99.88
3851.00,99.87
3850.00,99.87
3849.00,99.87
3848.00,99.87
3847.00,99.87
3846.00,99.87
3845.00,99.87
3844.00,99.87
3843.00,99.87
3842.00,99.87
3841.00,99.87
3840.00,99.87
3839.00,99.88
3838.00,99.88
3837.00,99.88
3836.00,99.88
3835.00,99.87
3834.00,99.87
3833.00,99.87
3832.00,99.88
3831.00,99.88
3830.00,99.88
3829.00,99.88
3828.00,99.88
3827.00,99.88
3826.00,99.87
3825.00,99.87
3824.00,99.87
3823.00,99.87
3822.00,99.87
3821.00,99.88
3820.00,99.88
3819.00,99.87
3818.00,99.87
3817.00,99.87
3816.00,99.87
3815.00,99.88
3814.00,99.88
3813.00,99.88
3812.00,99.88
3811.00,99.88
3810.00,99.88
3809.00,99.88
3808.00,99.88
3807.00,99.88
3806.00,99.88
3805.00,99.88
3804.00,99.88
3803.00,99.88
3802.00,99.88
3801.00,99.89
3800.00,99.89
3799.00,99.88
3798.00,99.88
3797.00,99.89
3796.00,99.89
3795.00,99.90
3794.00,99.90
3793.00,99.90
3792.00,99.90
3791.00,99.90
3790.00,99.90
3789.00,99.89
3788.00,99.89
3787.00,99.89
3786.00,99.89
3785.00,99.89
3784.00,99.89
3783.00,99.89
3782.00,99.88
3781.00,99.89
3780.00,99.89
3779.00,99.89
3778.00,99.89
3777.00,99.89
3776.00,99.89
3775.00,99.89
3774.00,99.89
3773.00,99.89
3772.00,99.89
3771.00,99.89
3770.00,99.89
3769.00,99.89
3768.00,99.88
3767.00,99.88
3766.00,99.88
3765.00,99.89
3764.00,99.89
3763.00,99.89
3762.00,99.88
3761.00,99.88
3760.00,99.88
3759.00,99.89
3758.00,99.89
3757.00,99.88
3756.00,99.88
3755.00,99.88
3754.00,99.88
3753.00,99.88
3752.00,99.88
3751.00,99.88
3750.00,99.88
3749.00,99.88
3748.00,99.88
3747.00,99.88
3746.00,99.88
3745.00,99.88
3744.00,99.89
3743.00,99.89
3742.00,99.89
3741.00,99.88
3740.00,99.88
3739.00,99.88
3738.00,99.88
3737.00,99.88
3736.00,99.88
3735.00,99.88
3734.00,99.87
3733.00,99.87
3732.00,99.87
3731.00,99.88
3730.00,99.88
3729.00,99.88
3728.00,99.88
3727.00,99.88
3726.00,99.89
3725.00,99.89
3724.00,99.89
3723.00,99.89
3722.00,99.89
3721.00,99.89
3720.00,99.89
3719.00,99.89
3718.00,99.89
3717.00,99.89
3716.00,99.89
3715.00,99.88
3714.00,99.88
3713.00,99.88
3712.00,99.87
3711.00,99.87
3710.00,99.88
3709.00,99.88
3708.00,99.88
3707.00,99.89
3706.00,99.88
3705.00,99.88
3704.00,99.88
3703.00,99.89
3702.00,99.89
3701.00,99.88
3700.00,99.88
3699.00,99.88
3698.00,99.88
3697.00,99.87
3696.00,99.87
3695.00,99.86
3694.00,99.86
3693.00,99.86
3692.00,99.86
3691.00,99.86
3690.00,99.85
3689.00,99.85
3688.00,99.85
3687.00,99.84
3686.00,99.84
3685.00,99.84
3684.00,99.84
3683.00,99.84
3682.00,99.83
3681.00,99.83
3680.00,99.83
3679.00,99.83
3678.00,99.83
3677.00,99.83
3676.00,99.83
3675.00,99.83
3674.00,99.83
3673.00,99.82
3672.00,99.82
3671.00,99.82
3670.00,99.82
3669.00,99.82
3668.00,99.82
3667.00,99.82
3666.00,99.82
3665.00,99.82
3664.00,99.82
3663.00,99.82
3662.00,99.81
3661.00,99.81
3660.00,99.81
3659.00,99.80
3658.00,99.80
3657.00,99.80
3656.00,99.79
3655.00,99.79
3654.00,99.78
3653.00,99.78
3652.00,99.78
3651.00,99.78
3650.00,99.77
3649.00,99.77
3648.00,99.77
3647.00,99.77
3646.00,99.77
3645.00,99.77
3644.00,99.77
3643.00,99.77
3642.00,99.77
3641.00,99.77
3640.00,99.77
3639.00,99.77
3638.00,99.77
3637.00,99.77
3636.00,99.77
3635.00,99.76
3634.00,99.76
3633.00,99.76
3632.00,99.76
3631.00,99.76
3630.00,99.76
3629.00,99.75
3628.00,99.75
3627.00,99.75
3626.00,99.75
3625.00,99.75
3624.00,99.76
3623.00,99.76
3622.00,99.76
3621.00,99.76
3620.00,99.76
3619.00,99.75
3618.00,99.75
3617.00,99.76
3616.00,99.76
3615.00,99.76
3614.00,99.76
3613.00,99.76
3612.00,99.76
3611.00,99.76
3610.00,99.76
3609.00,99.76
3608.00,99.76
3607.00,99.76
3606.00,99.76
3605.00,99.76
3604.00,99.76
3603.00,99.76
3602.00,99.77
3601.00,99.77
3600.00,99.78
3599.00,99.78
3598.00,99.78
3597.00,99.78
3596.00,99.78
3595.00,99.78
3594.00,99.78
3593.00,99.79
3592.00,99.79
3591.00,99.79
3590.00,99.79
3589.00,99.79
3588.00,99.79
3587.00,99.80
3586.00,99.80
3585.00,99.80
3584.00,99.80
3583.00,99.80
3582.00,99.80
3581.00,99.80
3580.00,99.80
3579.00,99.80
3578.00,99.79
3577.00,99.79
3576.00,99.79
3575.00,99.79
3574.00,99.79
3573.00,99.79
3572.00,99.79
3571.00,99.78
3570.00,99.77
3569.00,99.77
3568.00,99.76
3567.00,99.76
3566.00,99.76
3565.00,99.76
3564.00,99.77
3563.00,99.77
3562.00,99.77
3561.00,99.76
3560.00,99.76
3559.00,99.76
3558.00,99.76
3557.00,99.76
3556.00,99.76
3555.00,99.76
3554.00,99.76
3553.00,99.76
3552.00,99.75
3551.00,99.75
3550.00,99.75
3549.00,99.75
3548.00,99.74
3547.00,99.74
3546.00,99.75
3545.00,99.75
3544.00,99.75
3543.00,99.75
3542.00,99.75
3541.00,99.75
3540.00,99.75
3539.00,99.75
3538.00,99.75
3537.00,99.75
3536.00,99.75
3535.00,99.75
3534.00,99.75
3533.00,99.75
3532.00,99.75
3531.00,99.75
3530.00,99.75
3529.00,99.75
3528.00,99.75
3527.00,99.75
3526.00,99.75
3525.00,99.75
3524.00,99.75
3523.00,99.75
3522.00,99.75
3521.00,99.75
3520.00,99.75
3519.00,99.75
3518.00,99.76
3517.00,99.76
3516.00,99.76
3515.00,99.76
3514.00,99.76
3513.00,99.76
3512.00,99.75
3511.00,99.75
3510.00,99.75
3509.00,99.75
3508.00,99.75
3507.00,99.75
3506.00,99.75
3505.00,99.75
3504.00,99.75
3503.00,99.74
3502.00,99.74
3501.00,99.74
3500.00,99.74
3499.00,99.74
3498.00,99.74
3497.00,99.74
3496.00,99.73
3495.00,99.73
3494.00,99.72
3493.00,99.72
3492.00,99.71
3491.00,99.70
3490.00,99.70
3489.00,99.70
3488.00,99.70
3487.00,99.69
3486.00,99.69
3485.00,99.67
3484.00,99.66
3483.00,99.66
3482.00,99.66
3481.00,99.66
3480.00,99.66
3479.00,99.64
3478.00,99.63
3477.00,99.61
3476.00,99.60
3475.00,99.59
3474.00,99.58
3473.00,99.57
3472.00,99.57
3471.00,99.58
3470.00,99.58
3469.00,99.58
3468.00,99.57
3467.00,99.55
3466.00,99.53
3465.00,99.51
3464.00,99.49
3463.00,99.48
3462.00,99.47
3461.00,99.46
3460.00,99.45
3459.00,99.45
3458.00,99.44
3457.00,99.43
3456.00,99.43
3455.00,99.44
3454.00,99.44
3453.00,99.45
3452.00,99.45
3451.00,99.46
3450.00,99.47
3449.00,99.48
3448.00,99.49
3447.00,99.50
3446.00,99.52
3445.00,99.53
3444.00,99.54
3443.00,99.56
3442.00,99.57
3441.00,99.58
3440.00,99.60
3439.00,99.61
3438.00,99.63
3437.00,99.64
3436.00,99.65
3435.00,99.66
3434.00,99.67
3433.00,99.68
3432.00,99.68
3431.00,99.69
3430.00,99.69
3429.00,99.70
3428.00,99.70
3427.00,99.70
3426.00,99.70
3425.00,99.70
3424.00,99.70
3423.00,99.70
3422.00,99.71
3421.00,99.72
3420.00,99.72
3419.00,99.72
3418.00,99.72
3417.00,99.72
3416.00,99.73
3415.00,99.73
3414.00,99.73
3413.00,99.73
3412.00,99.73
3411.00,99.73
3410.00,99.72
3409.00,99.72
3408.00,99.72
3407.00,99.72
3406.00,99.72
3405.00,99.72
3404.00,99.73
3403.00,99.73
3402.00,99.73
3401.00,99.73
3400.00,99.73
3399.00,99.73
3398.00,99.73
3397.00,99.73
3396.00,99.73
3395.00,99.73
3394.00,99.73
3393.00,99.73
3392.00,99.72
3391.00,99.72
3390.00,99.72
3389.00,99.72
3388.00,99.72
3387.00,99.72
3386.00,99.71
3385.00,99.71
3384.00,99.71
3383.00,99.71
3382.00,99.71
3381.00,99.72
3380.00,99.72
3379.00,99.72
3378.00,99.71
3377.00,99.71
3376.00,99.71
3375.00,99.71
3374.00,99.71
3373.00,99.70
3372.00,99.70
3371.00,99.70
3370.00,99.70
3369.00,99.69
3368.00,99.69
3367.00,99.69
3366.00,99.69
3365.00,99.69
3364.00,99.69
3363.00,99.68
3362.00,99.68
3361.00,99.67
3360.00,99.66
3359.00,99.66
3358.00,99.65
3357.00,99.65
3356.00,99.65
3355.00,99.65
3354.00,99.65
3353.00,99.64
3352.00,99.63
3351.00,99.62
3350.00,99.62
3349.00,99.61
3348.00,99.60
3347.00,99.60
3346.00,99.59
3345.00,99.58
3344.00,99.56
3343.00,99.55
3342.00,99.53
3341.00,99.52
3340.00,99.50
3339.00,99.49
3338.00,99.47
3337.00,99.45
3336.00,99.42
3335.00,99.40
3334.00,99.37
3333.00,99.34
3332.00,99.31
3331.00,99.27
3330.00,99.24
3329.00,99.19
3328.00,99.14
3327.00,99.09
3326.00,99.03
3325.00,98.97
3324.00,98.91
3323.00,98.84
3322.00,98.76
3321.00,98.68
3320.00,98.59
3319.00,98.49
3318.00,98.39
3317.00,98.28
3316.00,98.17
3315.00,98.05
3314.00,97.92
3313.00,97.79
3312.00,97.67
3311.00,97.54
3310.00,97.42
3309.00,97.30
3308.00,97.20
3307.00,97.11
3306.00,97.03
3305.00,96.97
3304.00,96.94
3303.00,96.92
3302.00,96.92
3301.00,96.95
3300.00,97.00
3299.00,97.07
3298.00,97.15
3297.00,97.25
3296.00,97.35
3295.00,97.46
3294.00,97.57
3293.00,97.68
3292.00,97.79
3291.00,97.90
3290.00,98.01
3289.00,98.11
3288.00,98.20
3287.00,98.29
3286.00,98.38
3285.00,98.46
3284.00,98.54
3283.00,98.61
3282.00,98.68
3281.00,98.75
3280.00,98.82
3279.00,98.88
3278.00,98.93
3277.00,98.99
3276.00,99.04
3275.00,99.08
3274.00,99.12
3273.00,99.16
3272.00,99.19
3271.00,99.22
3270.00,99.25
3269.00,99.27
3268.00,99.30
3267.00,99.32
3266.00,99.34
3265.00,99.36
3264.00,99.37
3263.00,99.39
3262.00,99.41
3261.00,99.42
3260.00,99.43
3259.00,99.45
3258.00,99.46
3257.00,99.47
3256.00,99.48
3255.00,99.49
3254.00,99.50
3253.00,99.50
3252.00,99.51
3251.00,99.52
3250.00,99.52
3249.00,99.53
3248.00,99.54
3247.00,99.54
3246.00,99.55
3245.00,99.55
3244.00,99.55
3243.00,99.56
3242.00,99.57
3241.00,99.57
3240.00,99.58
3239.00,99.58
3238.00,99.58
3237.00,99.58
3236.00,99.58
3235.00,99.59
3234.00,99.59
3233.00,99.59
3232.00,99.59
3231.00,99.59
3230.00,99.59
3229.00,99.59
3228.00,99.60
3227.00,99.60
3226.00,99.60
3225.00,99.60
3224.00,99.59
3223.00,99.59
3222.00,99.59
3221.00,99.58
3220.00,99.58
3219.00,99.58
3218.00,99.58
3217.00,99.58
3216.00,99.57
3215.00,99.57
3214.00,99.57
3213.00,99.56
3212.00,99.56
3211.00,99.56
3210.00,99.56
3209.00,99.56
3208.00,99.57
3207.00,99.57
3206.00,99.58
3205.00,99.58
3204.00,99.57
3203.00,99.57
3202.00,99.57
3201.00,99.58
3200.00,99.58
3199.00,99.58
3198.00,99.59
3197.00,99.60
3196.00,99.60
3195.00,99.61
3194.00,99.61
3193.00,99.61
3192.00,99.62
3191.00,99.62
3190.00,99.63
3189.00,99.63
3188.00,99.64
3187.00,99.64
3186.00,99.64
3185.00,99.65
3184.00,99.65
3183.00,99.65
3182.00,99.66
3181.00,99.66
3180.00,99.66
3179.00,99.66
3178.00,99.66
3177.00,99.66
3176.00,99.66
3175.00,99.66
3174.00,99.66
3173.00,99.66
3172.00,99.66
3171.00,99.66
3170.00,99.67
3169.00,99.67
3168.00,99.67
3167.00,99.68
3166.00,99.68
3165.00,99.67
3164.00,99.67
3163.00,99.67
3162.00,99.67
3161.00,99.67
3160.00,99.67
3159.00,99.67
3158.00,99.67
3157.00,99.67
3156.00,99.66
3155.00,99.66
3154.00,99.66
3153.00,99.66
3152.00,99.66
3151.00,99.66
3150.00,99.66
3149.00,99.66
3148.00,99.66
3147.00,99.66
3146.00,99.66
3145.00,99.66
3144.00,99.66
3143.00,99.65
3142.00,99.65
3141.00,99.65
3140.00,99.65
3139.00,99.65
3138.00,99.65
3137.00,99.64
3136.00,99.64
3135.00,99.63
3134.00,99.63
3133.00,99.63
3132.00,99.62
3131.00,99.62
3130.00,99.62
3129.00,99.61
3128.00,99.61
3127.00,99.60
3126.00,99.60
3125.00,99.60
3124.00,99.60
3123.00,99.60
3122.00,99.59
3121.00,99.59
3120.00,99.59
3119.00,99.58
3118.00,99.57
3117.00,99.56
3116.00,99.56
3115.00,99.55
3114.00,99.55
3113.00,99.54
3112.00,99.54
3111.00,99.53
3110.00,99.52
3109.00,99.52
3108.00,99.51
3107.00,99.50
3106.00,99.48
3105.00,99.47
3104.00,99.46
3103.00,99.45
3102.00,99.44
3101.00,99.42
3100.00,99.41
3099.00,99.40
3098.00,99.38
3097.00,99.37
3096.00,99.36
3095.00,99.34
3094.00,99.33
3093.00,99.31
3092.00,99.30
3091.00,99.29
3090.00,99.28
3089.00,99.27
3088.00,99.27
3087.00,99.26
3086.00,99.26
3085.00,99.25
3084.00,99.25
3083.00,99.26
3082.00,99.26
3081.00,99.27
3080.00,99.27
3079.00,99.28
3078.00,99.28
3077.00,99.28
3076.00,99.29
3075.00,99.29
3074.00,99.30
3073.00,99.31
3072.00,99.31
3071.00,99.32
3070.00,99.32
3069.00,99.32
3068.00,99.32
3067.00,99.33
3066.00,99.33
3065.00,99.33
3064.00,99.33
3063.00,99.33
3062.00,99.33
3061.00,99.33
3060.00,99.32
3059.00,99.32
3058.00,99.32
3057.00,99.32
3056.00,99.32
3055.00,99.31
3054.00,99.31
3053.00,99.30
3052.00,99.29
3051.00,99.29
3050.00,99.28
3049.00,99.28
3048.00,99.27
3047.00,99.26
3046.00,99.25
3045.00,99.24
3044.00,99.23
3043.00,99.22
3042.00,99.21
3041.00,99.20
3040.00,99.19
3039.00,99.17
3038.00,99.15
3037.00,99.14
3036.00,99.13
3035.00,99.11
3034.00,99.10
3033.00,99.09
3032.00,99.07
3031.00,99.05
3030.00,99.03
3029.00,99.00
3028.00,98.98
3027.00,98.96
3026.00,98.93
3025.00,98.91
3024.00,98.88
3023.00,98.85
3022.00,98.83
3021.00,98.80
3020.00,98.78
3019.00,98.76
3018.00,98.73
3017.00,98.70
3016.00,98.67
3015.00,98.64
3014.00,98.61
3013.00,98.58
3012.00,98.55
3011.00,98.52
3010.00,98.49
3009.00,98.46
3008.00,98.44
3007.00,98.41
3006.00,98.40
3005.00,98.38
3004.00,98.38
3003.00,98.38
3002.00,98.38
3001.00,98.38
3000.00,98.39
2999.00,98.39
2998.00,98.38
2997.00,98.37
2996.00,98.35
2995.00,98.32
2994.00,98.29
2993.00,98.26
2992.00,98.21
2991.00,98.17
2990.00,98.11
2989.00,98.05
2988.00,97.99
2987.00,97.92
2986.00,97.85
2985.00,97.77
2984.00,97.68
2983.00,97.58
2982.00,97.48
2981.00,97.37
2980.00,97.25
2979.00,97.13
2978.00,96.99
2977.00,96.83
2976.00,96.67
2975.00,96.49
2974.00,96.31
2973.00,96.11
2972.00,95.89
2971.00,95.65
2970.00,95.39
2969.00,95.12
2968.00,94.84
2967.00,94.54
2966.00,94.23
2965.00,93.90
2964.00,93.56
2963.00,93.21
2962.00,92.84
2961.00,92.46
2960.00,92.07
2959.00,91.66
2958.00,91.25
2957.00,90.84
2956.00,90.43
2955.00,90.01
2954.00,89.59
2953.00,89.14
2952.00,88.68
2951.00,88.18
2950.00,87.65
2949.00,87.08
2948.00,86.46
2947.00,85.81
2946.00,85.12
2945.00,84.39
2944.00,83.61
2943.00,82.80
2942.00,81.94
2941.00,81.03
2940.00,80.09
2939.00,79.09
2938.00,78.04
2937.00,76.95
2936.00,75.82
2935.00,74.65
2934.00,73.46
2933.00,72.23
2932.00,70.99
2931.00,69.74
2930.00,68.48
2929.00,67.22
2928.00,65.97
2927.00,64.74
2926.00,63.55
2925.00,62.40
2924.00,61.31
2923.00,60.30
2922.00,59.41
2921.00,58.69
2920.00,58.24
2919.00,58.16
2918.00,58.54
2917.00,59.44
2916.00,60.80
2915.00,62.52
2914.00,64.43
2913.00,66.38
2912.00,68.24
2911.00,69.95
2910.00,71.48
2909.00,72.85
2908.00,74.07
2907.00,75.17
2906.00,76.17
2905.00,77.09
2904.00,77.96
2903.00,78.79
2902.00,79.58
2901.00,80.34
2900.00,81.09
2899.00,81.81
2898.00,82.50
2897.00,83.18
2896.00,83.84
2895.00,84.48
2894.00,85.11
2893.00,85.71
2892.00,86.30
2891.00,86.85
2890.00,87.39
2889.00,87.89
2888.00,88.37
2887.00,88.82
2886.00,89.23
2885.00,89.60
2884.00,89.93
2883.00,90.22
2882.00,90.47
2881.00,90.66
2880.00,90.80
2879.00,90.89
2878.00,90.92
2877.00,90.90
2876.00,90.82
2875.00,90.71
2874.00,90.55
2873.00,90.36
2872.00,90.12
2871.00,89.82
2870.00,89.45
2869.00,88.99
2868.00,88.43
2867.00,87.76
2866.00,86.98
2865.00,86.09
2864.00,85.07
2863.00,83.95
2862.00,82.71
2861.00,81.37
2860.00,79.94
2859.00,78.40
2858.00,76.78
2857.00,75.08
2856.00,73.33
2855.00,71.59
2854.00,69.97
2853.00,68.64
2852.00,67.82
2851.00,67.71
2850.00,68.43
2849.00,69.95
2848.00,72.09
2847.00,74.61
2846.00,77.26
2845.00,79.85
2844.00,82.28
2843.00,84.47
2842.00,86.41
2841.00,88.09
2840.00,89.53
2839.00,90.74
2838.00,91.75
2837.00,92.60
2836.00,93.32
2835.00,93.92
2834.00,94.43
2833.00,94.86
2832.00,95.24
2831.00,95.56
2830.00,95.84
2829.00,96.09
2828.00,96.30
2827.00,96.50
2826.00,96.67
2825.00,96.83
2824.00,96.96
2823.00,97.09
2822.00,97.21
2821.00,97.31
2820.00,97.41
2819.00,97.50
2818.00,97.59
2817.00,97.67
2816.00,97.75
2815.00,97.82
2814.00,97.89
2813.00,97.95
2812.00,98.01
2811.00,98.07
2810.00,98.12
2809.00,98.17
2808.00,98.22
2807.00,98.27
2806.00,98.31
2805.00,98.35
2804.00,98.39
2803.00,98.43
2802.00,98.47
2801.00,98.51
2800.00,98.54
2799.00,98.57
2798.00,98.59
2797.00,98.62
2796.00,98.65
2795.00,98.68
2794.00,98.71
2793.00,98.74
2792.00,98.76
2791.00,98.78
2790.00,98.81
2789.00,98.83
2788.00,98.85
2787.00,98.87
2786.00,98.89
2785.00,98.91
2784.00,98.93
2783.00,98.95
2782.00,98.96
2781.00,98.98
2780.00,98.99
2779.00,99.00
2778.00,99.02
2777.00,99.03
2776.00,99.04
2775.00,99.05
2774.00,99.06
2773.00,99.07
2772.00,99.08
2771.00,99.09
2770.00,99.09
2769.00,99.10
2768.00,99.10
2767.00,99.11
2766.00,99.11
2765.00,99.11
2764.00,99.11
2763.00,99.11
2762.00,99.12
2761.00,99.12
2760.00,99.12
2759.00,99.12
2758.00,99.12
2757.00,99.12
2756.00,99.13
2755.00,99.13
2754.00,99.13
2753.00,99.13
2752.00,99.14
2751.00,99.14
2750.00,99.14
2749.00,99.15
2748.00,99.15
2747.00,99.15
2746.00,99.15
2745.00,99.15
2744.00,99.15
2743.00,99.16
2742.00,99.16
2741.00,99.16
2740.00,99.16
2739.00,99.16
2738.00,99.16
2737.00,99.17
2736.00,99.17
2735.00,99.17
2734.00,99.17
2733.00,99.17
2732.00,99.18
2731.00,99.18
2730.00,99.19
2729.00,99.19
2728.00,99.20
2727.00,99.20
2726.00,99.21
2725.00,99.22
2724.00,99.23
2723.00,99.24
2722.00,99.24
2721.00,99.25
2720.00,99.25
2719.00,99.26
2718.00,99.26
2717.00,99.26
2716.00,99.27
2715.00,99.28
2714.00,99.28
2713.00,99.29
2712.00,99.29
2711.00,99.29
2710.00,99.29
2709.00,99.29
2708.00,99.30
2707.00,99.30
2706.00,99.30
2705.00,99.30
2704.00,99.30
2703.00,99.29
2702.00,99.29
2701.00,99.29
2700.00,99.29
2699.00,99.29
2698.00,99.28
2697.00,99.28
2696.00,99.27
2695.00,99.27
2694.00,99.26
2693.00,99.26
2692.00,99.25
2691.00,99.25
2690.00,99.24
2689.00,99.24
2688.00,99.23
2687.00,99.23
2686.00,99.22
2685.00,99.22
2684.00,99.22
2683.00,99.22
2682.00,99.21
2681.00,99.21
2680.00,99.21
2679.00,99.21
2678.00,99.21
2677.00,99.21
2676.00,99.22
2675.00,99.22
2674.00,99.23
2673.00,99.23
2672.00,99.24
2671.00,99.24
2670.00,99.24
2669.00,99.25
2668.00,99.26
2667.00,99.26
2666.00,99.27
2665.00,99.27
2664.00,99.28
2663.00,99.28
2662.00,99.28
2661.00,99.28
2660.00,99.29
2659.00,99.29
2658.00,99.30
2657.00,99.30
2656.00,99.31
2655.00,99.31
2654.00,99.31
2653.00,99.32
2652.00,99.32
2651.00,99.32
2650.00,99.33
2649.00,99.33
2648.00,99.33
2647.00,99.33
2646.00,99.33
2645.00,99.34
2644.00,99.34
2643.00,99.35
2642.00,99.35
2641.00,99.35
2640.00,99.35
2639.00,99.35
2638.00,99.36
2637.00,99.36
2636.00,99.37
2635.00,99.37
2634.00,99.37
2633.00,99.38
2632.00,99.38
2631.00,99.38
2630.00,99.38
2629.00,99.39
2628.00,99.39
2627.00,99.40
2626.00,99.40
2625.00,99.41
2624.00,99.41
2623.00,99.41
2622.00,99.42
2621.00,99.42
2620.00,99.43
2619.00,99.43
2618.00,99.44
2617.00,99.44
2616.00,99.45
2615.00,99.45
2614.00,99.45
2613.00,99.46
2612.00,99.46
2611.00,99.46
2610.00,99.46
2609.00,99.47
2608.00,99.47
2607.00,99.47
2606.00,99.48
2605.00,99.48
2604.00,99.48
2603.00,99.49
2602.00,99.49
2601.00,99.50
2600.00,99.50
2599.00,99.51
2598.00,99.51
2597.00,99.51
2596.00,99.51
2595.00,99.52
2594.00,99.52
2593.00,99.53
2592.00,99.54
2591.00,99.54
2590.00,99.54
2589.00,99.55
2588.00,99.55
2587.00,99.55
2586.00,99.55
2585.00,99.56
2584.00,99.56
2583.00,99.56
2582.00,99.57
2581.00,99.58
2580.00,99.59
2579.00,99.59
2578.00,99.60
2577.00,99.60
2576.00,99.61
2575.00,99.61
2574.00,99.61
2573.00,99.62
2572.00,99.62
2571.00,99.62
2570.00,99.62
2569.00,99.63
2568.00,99.64
2567.00,99.64
2566.00,99.64
2565.00,99.65
2564.00,99.65
2563.00,99.65
2562.00,99.65
2561.00,99.66
2560.00,99.66
2559.00,99.66
2558.00,99.67
2557.00,99.67
2556.00,99.67
2555.00,99.66
2554.00,99.66
2553.00,99.66
2552.00,99.66
2551.00,99.66
2550.00,99.67
2549.00,99.67
2548.00,99.68
2547.00,99.68
2546.00,99.68
2545.00,99.68
2544.00,99.69
2543.00,99.69
2542.00,99.70
2541.00,99.70
2540.00,99.70
2539.00,99.69
2538.00,99.68
2537.00,99.68
2536.00,99.68
2535.00,99.68
2534.00,99.69
2533.00,99.69
2532.00,99.69
2531.00,99.69
2530.00,99.69
2529.00,99.70
2528.00,99.70
2527.00,99.70
2526.00,99.70
2525.00,99.70
2524.00,99.71
2523.00,99.71
2522.00,99.70
2521.00,99.70
2520.00,99.70
2519.00,99.70
2518.00,99.69
2517.00,99.70
2516.00,99.70
2515.00,99.70
2514.00,99.70
2513.00,99.70
2512.00,99.71
2511.00,99.71
2510.00,99.71
2509.00,99.70
2508.00,99.70
2507.00,99.70
2506.00,99.69
2505.00,99.69
2504.00,99.69
2503.00,99.69
2502.00,99.69
2501.00,99.69
2500.00,99.69
2499.00,99.69
2498.00,99.68
2497.00,99.68
2496.00,99.67
2495.00,99.67
2494.00,99.66
2493.00,99.66
2492.00,99.66
2491.00,99.66
2490.00,99.66
2489.00,99.66
2488.00,99.65
2487.00,99.65
2486.00,99.64
2485.00,99.64
2484.00,99.64
2483.00,99.64
2482.00,99.64
2481.00,99.64
2480.00,99.64
2479.00,99.64
2478.00,99.63
2477.00,99.63
2476.00,99.63
2475.00,99.64
2474.00,99.64
2473.00,99.65
2472.00,99.65
2471.00,99.65
2470.00,99.65
2469.00,99.65
2468.00,99.66
2467.00,99.66
2466.00,99.66
2465.00,99.66
2464.00,99.66
2463.00,99.66
2462.00,99.66
2461.00,99.66
2460.00,99.66
2459.00,99.66
2458.00,99.67
2457.00,99.67
2456.00,99.68
2455.00,99.68
2454.00,99.69
2453.00,99.69
2452.00,99.70
2451.00,99.70
2450.00,99.71
2449.00,99.72
2448.00,99.72
2447.00,99.73
2446.00,99.73
2445.00,99.73
2444.00,99.73
2443.00,99.73
2442.00,99.73
2441.00,99.74
2440.00,99.75
2439.00,99.75
2438.00,99.75
2437.00,99.75
2436.00,99.76
2435.00,99.76
2434.00,99.76
2433.00,99.77
2432.00,99.77
2431.00,99.77
2430.00,99.77
2429.00,99.76
2428.00,99.75
2427.00,99.75
2426.00,99.74
2425.00,99.75
2424.00,99.75
2423.00,99.75
2422.00,99.75
2421.00,99.75
2420.00,99.75
2419.00,99.74
2418.00,99.74
2417.00,99.74
2416.00,99.74
2415.00,99.74
2414.00,99.74
2413.00,99.74
2412.00,99.74
2411.00,99.74
2410.00,99.74
2409.00,99.74
2408.00,99.74
2407.00,99.74
2406.00,99.74
2405.00,99.74
2404.00,99.74
2403.00,99.74
2402.00,99.74
2401.00,99.74
2400.00,99.74
2399.00,99.74
2398.00,99.74
2397.00,99.74
2396.00,99.74
2395.00,99.75
2394.00,99.75
2393.00,99.75
2392.00,99.74
2391.00,99.74
2390.00,99.74
2389.00,99.75
2388.00,99.75
2387.00,99.75
2386.00,99.75
2385.00,99.75
2384.00,99.76
2383.00,99.76
2382.00,99.77
2381.00,99.77
2380.00,99.78
2379.00,99.78
2378.00,99.78
2377.00,99.78
2376.00,99.78
2375.00,99.77
2374.00,99.76
2373.00,99.76
2372.00,99.76
2371.00,99.76
2370.00,99.76
2369.00,99.76
2368.00,99.76
2367.00,99.76
2366.00,99.76
2365.00,99.77
2364.00,99.77
2363.00,99.76
2362.00,99.75
2361.00,99.74
2360.00,99.73
2359.00,99.73
2358.00,99.73
2357.00,99.74
2356.00,99.74
2355.00,99.74
2354.00,99.74
2353.00,99.73
2352.00,99.71
2351.00,99.70
2350.00,99.70
2349.00,99.71
2348.00,99.72
2347.00,99.73
2346.00,99.74
2345.00,99.74
2344.00,99.74
2343.00,99.72
2342.00,99.70
2341.00,99.69
2340.00,99.68
2339.00,99.68
2338.00,99.68
2337.00,99.68
2336.00,99.68
2335.00,99.68
2334.00,99.67
2333.00,99.67
2332.00,99.67
2331.00,99.66
2330.00,99.66
2329.00,99.67
2328.00,99.66
2327.00,99.64
2326.00,99.61
2325.00,99.58
2324.00,99.56
2323.00,99.56
2322.00,99.57
2321.00,99.59
2320.00,99.60
2319.00,99.60
2318.00,99.60
2317.00,99.60
2316.00,99.61
2315.00,99.62
2314.00,99.62
2313.00,99.63
2312.00,99.63
2311.00,99.63
2310.00,99.63
2309.00,99.64
2308.00,99.63
2307.00,99.63
2306.00,99.62
2305.00,99.62
2304.00,99.62
2303.00,99.63
2302.00,99.63
2301.00,99.64
2300.00,99.64
2299.00,99.64
2298.00,99.64
2297.00,99.63
2296.00,99.63
2295.00,99.63
2294.00,99.63
2293.00,99.63
2292.00,99.62
2291.00,99.62
2290.00,99.61
2289.00,99.60
2288.00,99.60
2287.00,99.60
2286.00,99.60
2285.00,99.60
2284.00,99.60
2283.00,99.60
2282.00,99.61
2281.00,99.61
2280.00,99.62
2279.00,99.62
2278.00,99.63
2277.00,99.63
2276.00,99.64
2275.00,99.64
2274.00,99.64
2273.00,99.65
2272.00,99.65
2271.00,99.64
2270.00,99.64
2269.00,99.65
2268.00,99.65
2267.00,99.66
2266.00,99.66
2265.00,99.67
2264.00,99.67
2263.00,99.67
2262.00,99.67
2261.00,99.67
2260.00,99.66
2259.00,99.65
2258.00,99.64
2257.00,99.64
2256.00,99.65
2255.00,99.65
2254.00,99.66
2253.00,99.66
2252.00,99.67
2251.00,99.67
2250.00,99.67
2249.00,99.67
2248.00,99.67
2247.00,99.67
2246.00,99.68
2245.00,99.69
2244.00,99.69
2243.00,99.70
2242.00,99.70
2241.00,99.69
2240.00,99.69
2239.00,99.69
2238.00,99.70
2237.00,99.71
2236.00,99.72
2235.00,99.71
2234.00,99.70
2233.00,99.70
2232.00,99.71
2231.00,99.72
2230.00,99.73
2229.00,99.74
2228.00,99.74
2227.00,99.73
2226.00,99.72
2225.00,99.73
2224.00,99.73
2223.00,99.73
2222.00,99.73
2221.00,99.73
2220.00,99.73
2219.00,99.73
2218.00,99.73
2217.00,99.73
2216.00,99.73
2215.00,99.73
2214.00,99.72
2213.00,99.71
2212.00,99.71
2211.00,99.70
2210.00,99.70
2209.00,99.70
2208.00,99.70
2207.00,99.70
2206.00,99.70
2205.00,99.70
2204.00,99.71
2203.00,99.71
2202.00,99.70
2201.00,99.69
2200.00,99.68
2199.00,99.67
2198.00,99.67
2197.00,99.68
2196.00,99.68
2195.00,99.68
2194.00,99.67
2193.00,99.66
2192.00,99.66
2191.00,99.66
2190.00,99.65
2189.00,99.64
2188.00,99.63
2187.00,99.61
2186.00,99.60
2185.00,99.60
2184.00,99.60
2183.00,99.60
2182.00,99.61
2181.00,99.61
2180.00,99.61
2179.00,99.60
2178.00,99.59
2177.00,99.59
2176.00,99.61
2175.00,99.62
2174.00,99.62
2173.00,99.62
2172.00,99.60
2171.00,99.58
2170.00,99.56
2169.00,99.55
2168.00,99.53
2167.00,99.52
2166.00,99.51
2165.00,99.52
2164.00,99.52
2163.00,99.50
2162.00,99.49
2161.00,99.50
2160.00,99.55
2159.00,99.62
2158.00,99.71
2157.00,99.77
2156.00,99.80
2155.00,99.80
2154.00,99.79
2153.00,99.78
2152.00,99.77
2151.00,99.76
2150.00,99.75
2149.00,99.75
2148.00,99.75
2147.00,99.74
2146.00,99.73
2145.00,99.73
2144.00,99.73
2143.00,99.72
2142.00,99.71
2141.00,99.71
2140.00,99.72
2139.00,99.73
2138.00,99.74
2137.00,99.75
2136.00,99.76
2135.00,99.78
2134.00,99.79
2133.00,99.80
2132.00,99.80
2131.00,99.80
2130.00,99.79
2129.00,99.79
2128.00,99.79
2127.00,99.77
2126.00,99.76
2125.00,99.76
2124.00,99.76
2123.00,99.76
2122.00,99.75
2121.00,99.75
2120.00,99.74
2119.00,99.73
2118.00,99.72
2117.00,99.71
2116.00,99.70
2115.00,99.69
2114.00,99.68
2113.00,99.68
2112.00,99.68
2111.00,99.68
2110.00,99.69
2109.00,99.69
2108.00,99.69
2107.00,99.69
2106.00,99.70
2105.00,99.70
2104.00,99.71
2103.00,99.72
2102.00,99.72
2101.00,99.72
2100.00,99.72
2099.00,99.71
2098.00,99.70
2097.00,99.71
2096.00,99.72
2095.00,99.72
2094.00,99.73
2093.00,99.74
2092.00,99.74
2091.00,99.74
2090.00,99.74
2089.00,99.74
2088.00,99.73
2087.00,99.71
2086.00,99.70
2085.00,99.70
2084.00,99.70
2083.00,99.70
2082.00,99.71
2081.00,99.71
2080.00,99.71
2079.00,99.71
2078.00,99.70
2077.00,99.70
2076.00,99.70
2075.00,99.70
2074.00,99.71
2073.00,99.71
2072.00,99.71
2071.00,99.71
2070.00,99.70
2069.00,99.70
2068.00,99.70
2067.00,99.70
2066.00,99.70
2065.00,99.70
2064.00,99.71
2063.00,99.71
2062.00,99.71
2061.00,99.71
2060.00,99.71
2059.00,99.71
2058.00,99.70
2057.00,99.71
2056.00,99.70
2055.00,99.70
2054.00,99.69
2053.00,99.67
2052.00,99.65
2051.00,99.62
2050.00,99.60
2049.00,99.60
2048.00,99.61
2047.00,99.63
2046.00,99.64
2045.00,99.65
2044.00,99.66
2043.00,99.66
2042.00,99.67
2041.00,99.68
2040.00,99.70
2039.00,99.70
2038.00,99.69
2037.00,99.67
2036.00,99.67
2035.00,99.66
2034.00,99.67
2033.00,99.69
2032.00,99.70
2031.00,99.70
2030.00,99.69
2029.00,99.69
2028.00,99.69
2027.00,99.69
2026.00,99.68
2025.00,99.68
2024.00,99.67
2023.00,99.66
2022.00,99.64
2021.00,99.65
2020.00,99.67
2019.00,99.68
2018.00,99.68
2017.00,99.69
2016.00,99.70
2015.00,99.69
2014.00,99.69
2013.00,99.69
2012.00,99.69
2011.00,99.69
2010.00,99.69
2009.00,99.70
2008.00,99.72
2007.00,99.72
2006.00,99.72
2005.00,99.72
2004.00,99.71
2003.00,99.69
2002.00,99.67
2001.00,99.67
2000.00,99.68
1999.00,99.68
1998.00,99.69
1997.00,99.70
1996.00,99.70
1995.00,99.69
1994.00,99.68
1993.00,99.68
1992.00,99.69
1991.00,99.68
1990.00,99.68
1989.00,99.67
1988.00,99.67
1987.00,99.66
1986.00,99.65
1985.00,99.65
1984.00,99.65
1983.00,99.63
1982.00,99.61
1981.00,99.60
1980.00,99.60
1979.00,99.61
1978.00,99.64
1977.00,99.69
1976.00,99.72
1975.00,99.73
1974.00,99.73
1973.00,99.75
1972.00,99.76
1971.00,99.75
1970.00,99.75
1969.00,99.75
1968.00,99.75
1967.00,99.73
1966.00,99.72
1965.00,99.71
1964.00,99.72
1963.00,99.72
1962.00,99.72
1961.00,99.73
1960.00,99.74
1959.00,99.73
1958.00,99.72
1957.00,99.72
1956.00,99.72
1955.00,99.70
1954.00,99.70
1953.00,99.71
1952.00,99.72
1951.00,99.71
1950.00,99.71
1949.00,99.71
1948.00,99.71
1947.00,99.70
1946.00,99.70
1945.00,99.70
1944.00,99.71
1943.00,99.72
1942.00,99.71
1941.00,99.72
1940.00,99.71
1939.00,99.70
1938.00,99.69
1937.00,99.69
1936.00,99.69
1935.00,99.68
1934.00,99.67
1933.00,99.67
1932.00,99.68
1931.00,99.68
1930.00,99.68
1929.00,99.68
1928.00,99.68
1927.00,99.67
1926.00,99.67
1925.00,99.67
1924.00,99.67
1923.00,99.66
1922.00,99.65
1921.00,99.65
1920.00,99.66
1919.00,99.65
1918.00,99.64
1917.00,99.64
1916.00,99.64
1915.00,99.64
1914.00,99.63
1913.00,99.63
1912.00,99.63
1911.00,99.62
1910.00,99.61
1909.00,99.61
1908.00,99.60
1907.00,99.59
1906.00,99.59
1905.00,99.59
1904.00,99.59
1903.00,99.57
1902.00,99.56
1901.00,99.55
1900.00,99.55
1899.00,99.55
1898.00,99.54
1897.00,99.54
1896.00,99.54
1895.00,99.53
1894.00,99.53
1893.00,99.54
1892.00,99.55
1891.00,99.54
1890.00,99.52
1889.00,99.50
1888.00,99.50
1887.00,99.49
1886.00,99.48
1885.00,99.48
1884.00,99.47
1883.00,99.46
1882.00,99.45
1881.00,99.45
1880.00,99.44
1879.00,99.44
1878.00,99.43
1877.00,99.42
1876.00,99.42
1875.00,99.41
1874.00,99.39
1873.00,99.39
1872.00,99.39
1871.00,99.38
1870.00,99.36
1869.00,99.35
1868.00,99.34
1867.00,99.34
1866.00,99.34
1865.00,99.35
1864.00,99.36
1863.00,99.35
1862.00,99.34
1861.00,99.34
1860.00,99.33
1859.00,99.32
1858.00,99.32
1857.00,99.33
1856.00,99.35
1855.00,99.35
1854.00,99.35
1853.00,99.34
1852.00,99.34
1851.00,99.32
1850.00,99.31
1849.00,99.32
1848.00,99.33
1847.00,99.34
1846.00,99.34
1845.00,99.34
1844.00,99.33
1843.00,99.31
1842.00,99.30
1841.00,99.29
1840.00,99.28
1839.00,99.26
1838.00,99.24
1837.00,99.24
1836.00,99.24
1835.00,99.23
1834.00,99.22
1833.00,99.22
1832.00,99.21
1831.00,99.18
1830.00,99.15
1829.00,99.14
1828.00,99.14
1827.00,99.13
1826.00,99.12
1825.00,99.10
1824.00,99.09
1823.00,99.07
1822.00,99.05
1821.00,99.05
1820.00,99.04
1819.00,99.03
1818.00,99.02
1817.00,99.02
1816.00,99.01
1815.00,98.99
1814.00,98.97
1813.00,98.96
1812.00,98.95
1811.00,98.92
1810.00,98.90
1809.00,98.89
1808.00,98.88
1807.00,98.86
1806.00,98.84
1805.00,98.83
1804.00,98.82
1803.00,98.80
1802.00,98.77
1801.00,98.75
1800.00,98.72
1799.00,98.69
1798.00,98.66
1797.00,98.65
1796.00,98.64
1795.00,98.62
1794.00,98.59
1793.00,98.57
1792.00,98.53
1791.00,98.49
1790.00,98.45
1789.00,98.43
1788.00,98.41
1787.00,98.38
1786.00,98.34
1785.00,98.31
1784.00,98.27
1783.00,98.22
1782.00,98.16
1781.00,98.12
1780.00,98.08
1779.00,98.02
1778.00,97.97
1777.00,97.93
1776.00,97.89
1775.00,97.83
1774.00,97.75
1773.00,97.65
1772.00,97.53
1771.00,97.40
1770.00,97.28
1769.00,97.17
1768.00,97.03
1767.00,96.84
1766.00,96.65
1765.00,96.49
1764.00,96.31
1763.00,96.04
1762.00,95.72
1761.00,95.42
1760.00,95.14
1759.00,94.80
1758.00,94.38
1757.00,93.86
1756.00,93.25
1755.00,92.58
1754.00,91.83
1753.00,90.86
1752.00,89.46
1751.00,87.54
1750.00,85.19
1749.00,82.50
1748.00,79.48
1747.00,76.25
1746.00,72.86
1745.00,69.21
1744.00,65.34
1743.00,61.50
1742.00,57.88
1741.00,54.37
1740.00,50.94
1739.00,48.04
1738.00,46.03
1737.00,44.79
1736.00,44.01
1735.00,43.70
1734.00,44.05
1733.00,45.07
1732.00,46.62
1731.00,48.77
1730.00,51.54
1729.00,54.71
1728.00,58.05
1727.00,61.46
1726.00,64.94
1725.00,68.49
1724.00,71.97
1723.00,75.18
1722.00,77.90
1721.00,80.11
1720.00,82.07
1719.00,84.08
1718.00,86.14
1717.00,87.85
1716.00,89.09
1715.00,90.07
1714.00,90.89
1713.00,91.56
1712.00,92.12
1711.00,92.64
1710.00,93.11
1709.00,93.49
1708.00,93.79
1707.00,94.08
1706.00,94.35
1705.00,94.55
1704.00,94.69
1703.00,94.85
1702.00,95.00
1701.00,95.06
1700.00,95.08
1699.00,95.14
1698.00,95.23
1697.00,95.32
1696.00,95.43
1695.00,95.59
1694.00,95.73
1693.00,95.85
1692.00,95.98
1691.00,96.15
1690.00,96.34
1689.00,96.51
1688.00,96.67
1687.00,96.84
1686.00,97.01
1685.00,97.13
1684.00,97.23
1683.00,97.34
1682.00,97.42
1681.00,97.47
1680.00,97.52
1679.00,97.59
1678.00,97.66
1677.00,97.70
1676.00,97.72
1675.00,97.75
1674.00,97.78
1673.00,97.80
1672.00,97.80
1671.00,97.80
1670.00,97.81
1669.00,97.80
1668.00,97.80
1667.00,97.82
1666.00,97.83
1665.00,97.82
1664.00,97.79
1663.00,97.75
1662.00,97.72
1661.00,97.68
1660.00,97.64
1659.00,97.61
1658.00,97.59
1657.00,97.57
1656.00,97.56
1655.00,97.54
1654.00,97.38
1653.00,97.09
1652.00,96.85
1651.00,96.66
1650.00,96.46
1649.00,96.16
1648.00,95.71
1647.00,95.08
1646.00,94.42
1645.00,93.82
1644.00,93.28
1643.00,92.79
1642.00,92.40
1641.00,92.18
1640.00,92.21
1639.00,92.50
1638.00,93.02
1637.00,93.77
1636.00,94.71
1635.00,95.58
1634.00,96.17
1633.00,96.53
1632.00,96.81
1631.00,97.06
1630.00,97.28
1629.00,97.48
1628.00,97.64
1627.00,97.80
1626.00,97.92
1625.00,98.00
1624.00,98.07
1623.00,98.14
1622.00,98.20
1621.00,98.24
1620.00,98.27
1619.00,98.32
1618.00,98.35
1617.00,98.36
1616.00,98.36
1615.00,98.39
1614.00,98.41
1613.00,98.43
1612.00,98.46
1611.00,98.49
1610.00,98.52
1609.00,98.53
1608.00,98.55
1607.00,98.57
1606.00,98.59
1605.00,98.60
1604.00,98.60
1603.00,98.60
1602.00,98.61
1601.00,98.60
1600.00,98.59
1599.00,98.59
1598.00,98.59
1597.00,98.57
1596.00,98.55
1595.00,98.54
1594.00,98.54
1593.00,98.52
1592.00,98.50
1591.00,98.48
1590.00,98.46
1589.00,98.44
1588.00,98.41
1587.00,98.38
1586.00,98.35
1585.00,98.30
1584.00,98.25
1583.00,98.20
1582.00,98.15
1581.00,98.09
1580.00,98.03
1579.00,97.98
1578.00,97.90
1577.00,97.76
1576.00,97.56
1575.00,97.38
1574.00,97.21
1573.00,97.05
1572.00,96.85
1571.00,96.58
1570.00,96.23
1569.00,95.86
1568.00,95.55
1567.00,95.32
1566.00,95.12
1565.00,94.94
1564.00,94.81
1563.00,94.79
1562.00,94.86
1561.00,94.95
1560.00,95.07
1559.00,95.30
1558.00,95.59
1557.00,95.79
1556.00,95.94
1555.00,96.13
1554.00,96.33
1553.00,96.51
1552.00,96.66
1551.00,96.81
1550.00,96.97
1549.00,97.11
1548.00,97.22
1547.00,97.33
1546.00,97.43
1545.00,97.53
1544.00,97.61
1543.00,97.70
1542.00,97.79
1541.00,97.85
1540.00,97.91
1539.00,97.99
1538.00,98.06
1537.00,98.08
1536.00,98.09
1535.00,98.11
1534.00,98.14
1533.00,98.17
1532.00,98.19
1531.00,98.22
1530.00,98.25
1529.00,98.26
1528.00,98.26
1527.00,98.28
1526.00,98.30
1525.00,98.31
1524.00,98.32
1523.00,98.34
1522.00,98.36
1521.00,98.35
1520.00,98.34
1519.00,98.33
1518.00,98.32
1517.00,98.30
1516.00,98.30
1515.00,98.32
1514.00,98.34
1513.00,98.34
1512.00,98.33
1511.00,98.34
1510.00,98.36
1509.00,98.36
1508.00,98.34
1507.00,98.31
1506.00,98.31
1505.00,98.30
1504.00,98.28
1503.00,98.26
1502.00,98.26
1501.00,98.25
1500.00,98.23
1499.00,98.22
1498.00,98.21
1497.00,98.18
1496.00,98.15
1495.00,98.14
1494.00,98.13
1493.00,98.10
1492.00,98.06
1491.00,98.02
1490.00,97.97
1489.00,97.91
1488.00,97.84
1487.00,97.80
1486.00,97.76
1485.00,97.69
1484.00,97.61
1483.00,97.52
1482.00,97.40
1481.00,97.24
1480.00,97.04
1479.00,96.81
1478.00,96.45
1477.00,95.85
1476.00,94.99
1475.00,93.91
1474.00,92.54
1473.00,90.89
1472.00,89.32
1471.00,88.12
1470.00,87.22
1469.00,86.49
1468.00,85.94
1467.00,85.61
1466.00,85.52
1465.00,85.64
1464.00,85.95
1463.00,86.33
1462.00,86.70
1461.00,87.03
1460.00,87.34
1459.00,87.63
1458.00,87.94
1457.00,88.31
1456.00,88.74
1455.00,89.16
1454.00,89.53
1453.00,89.90
1452.00,90.25
1451.00,90.53
1450.00,90.74
1449.00,90.86
1448.00,90.93
1447.00,90.95
1446.00,90.94
1445.00,90.91
1444.00,90.85
1443.00,90.77
1442.00,90.68
1441.00,90.59
1440.00,90.53
1439.00,90.49
1438.00,90.47
1437.00,90.45
1436.00,90.47
1435.00,90.54
1434.00,90.65
1433.00,90.81
1432.00,91.02
1431.00,91.29
1430.00,91.60
1429.00,91.93
1428.00,92.26
1427.00,92.58
1426.00,92.88
1425.00,93.20
1424.00,93.52
1423.00,93.82
1422.00,94.08
1421.00,94.33
1420.00,94.59
1419.00,94.84
1418.00,95.05
1417.00,95.22
1416.00,95.38
1415.00,95.52
1414.00,95.65
1413.00,95.78
1412.00,95.90
1411.00,96.00
1410.00,96.07
1409.00,96.13
1408.00,96.18
1407.00,96.20
1406.00,96.21
1405.00,96.22
1404.00,96.22
1403.00,96.20
1402.00,96.18
1401.00,96.14
1400.00,96.07
1399.00,95.96
1398.00,95.84
1397.00,95.71
1396.00,95.53
1395.00,95.29
1394.00,95.01
1393.00,94.71
1392.00,94.40
1391.00,94.05
1390.00,93.65
1389.00,93.17
1388.00,92.56
1387.00,91.83
1386.00,91.05
1385.00,90.25
1384.00,89.35
1383.00,88.33
1382.00,87.18
1381.00,85.93
1380.00,84.58
1379.00,83.18
1378.00,81.83
1377.00,80.56
1376.00,79.34
1375.00,78.17
1374.00,77.16
1373.00,76.46
1372.00,76.08
1371.00,76.02
1370.00,76.24
1369.00,76.71
1368.00,77.38
1367.00,78.17
1366.00,79.05
1365.00,79.98
1364.00,80.99
1363.00,82.08
1362.00,83.14
1361.00,84.11
1360.00,84.95
1359.00,85.73
1358.00,86.48
1357.00,87.20
1356.00,87.90
1355.00,88.60
1354.00,89.30
1353.00,89.98
1352.00,90.66
1351.00,91.34
1350.00,92.02
1349.00,92.68
1348.00,93.29
1347.00,93.86
1346.00,94.35
1345.00,94.78
1344.00,95.14
1343.00,95.44
1342.00,95.70
1341.00,95.92
1340.00,96.11
1339.00,96.29
1338.00,96.44
1337.00,96.56
1336.00,96.66
1335.00,96.75
1334.00,96.82
1333.00,96.87
1332.00,96.90
1331.00,96.92
1330.00,96.93
1329.00,96.92
1328.00,96.90
1327.00,96.88
1326.00,96.86
1325.00,96.82
1324.00,96.78
1323.00,96.74
1322.00,96.69
1321.00,96.63
1320.00,96.57
1319.00,96.50
1318.00,96.43
1317.00,96.35
1316.00,96.27
1315.00,96.19
1314.00,96.12
1313.00,96.03
1312.00,95.94
1311.00,95.86
1310.00,95.78
1309.00,95.70
1308.00,95.61
1307.00,95.53
1306.00,95.46
1305.00,95.38
1304.00,95.30
1303.00,95.22
1302.00,95.15
1301.00,95.06
1300.00,94.98
1299.00,94.90
1298.00,94.83
1297.00,94.75
1296.00,94.67
1295.00,94.59
1294.00,94.51
1293.00,94.41
1292.00,94.30
1291.00,94.18
1290.00,94.06
1289.00,93.93
1288.00,93.79
1287.00,93.63
1286.00,93.46
1285.00,93.27
1284.00,93.06
1283.00,92.83
1282.00,92.59
1281.00,92.32
1280.00,92.03
1279.00,91.70
1278.00,91.35
1277.00,90.97
1276.00,90.53
1275.00,90.06
1274.00,89.55
1273.00,88.98
1272.00,88.35
1271.00,87.66
1270.00,86.90
1269.00,86.07
1268.00,85.15
1267.00,84.16
1266.00,83.08
1265.00,81.91
1264.00,80.66
1263.00,79.34
1262.00,77.96
1261.00,76.50
1260.00,74.98
1259.00,73.42
1258.00,71.85
1257.00,70.24
1256.00,68.59
1255.00,66.92
1254.00,65.25
1253.00,63.55
1252.00,61.81
1251.00,60.08
1250.00,58.35
1249.00,56.60
1248.00,54.82
1247.00,53.07
1246.00,51.36
1245.00,49.67
1244.00,47.99
1243.00,46.41
1242.00,44.95
1241.00,43.59
1240.00,42.37
1239.00,41.35
1238.00,40.59
1237.00,40.05
1236.00,39.77
1235.00,39.82
1234.00,40.22
1233.00,40.94
1232.00,41.96
1231.00,43.32
1230.00,45.00
1229.00,46.90
1228.00,48.96
1227.00,51.19
1226.00,53.53
1225.00,55.88
1224.00,58.21
1223.00,60.49
1222.00,62.71
1221.00,64.82
1220.00,66.80
1219.00,68.69
1218.00,70.49
1217.00,72.16
1216.00,73.72
1215.00,75.19
1214.00,76.59
1213.00,77.90
1212.00,79.13
1211.00,80.29
1210.00,81.39
1209.00,82.41
1208.00,83.35
1207.00,84.23
1206.00,85.06
1205.00,85.81
1204.00,86.49
1203.00,87.12
1202.00,87.71
1201.00,88.23
1200.00,88.70
1199.00,89.13
1198.00,89.53
1197.00,89.91
1196.00,90.28
1195.00,90.63
1194.00,90.97
1193.00,91.27
1192.00,91.55
1191.00,91.81
1190.00,92.04
1189.00,92.25
1188.00,92.44
1187.00,92.62
1186.00,92.80
1185.00,92.96
1184.00,93.09
1183.00,93.22
1182.00,93.34
1181.00,93.44
1180.00,93.54
1179.00,93.64
1178.00,93.73
1177.00,93.81
1176.00,93.88
1175.00,93.95
1174.00,94.00
1173.00,94.05
1172.00,94.08
1171.00,94.11
1170.00,94.13
1169.00,94.15
1168.00,94.16
1167.00,94.16
1166.00,94.15
1165.00,94.12
1164.00,94.09
1163.00,94.05
1162.00,94.00
1161.00,93.94
1160.00,93.87
1159.00,93.79
1158.00,93.70
1157.00,93.60
1156.00,93.49
1155.00,93.37
1154.00,93.25
1153.00,93.12
1152.00,92.99
1151.00,92.87
1150.00,92.76
1149.00,92.66
1148.00,92.56
1147.00,92.47
1146.00,92.39
1145.00,92.31
1144.00,92.23
1143.00,92.15
1142.00,92.08
1141.00,92.00
1140.00,91.92
1139.00,91.84
1138.00,91.75
1137.00,91.67
1136.00,91.57
1135.00,91.47
1134.00,91.37
1133.00,91.26
1132.00,91.14
1131.00,91.03
1130.00,90.92
1129.00,90.81
1128.00,90.72
1127.00,90.65
1126.00,90.59
1125.00,90.55
1124.00,90.52
1123.00,90.51
1122.00,90.52
1121.00,90.54
1120.00,90.57
1119.00,90.61
1118.00,90.67
1117.00,90.73
1116.00,90.80
1115.00,90.88
1114.00,90.97
1113.00,91.07
1112.00,91.16
1111.00,91.26
1110.00,91.35
1109.00,91.43
1108.00,91.50
1107.00,91.57
1106.00,91.63
1105.00,91.68
1104.00,91.72
1103.00,91.75
1102.00,91.77
1101.00,91.78
1100.00,91.78
1099.00,91.77
1098.00,91.75
1097.00,91.73
1096.00,91.70
1095.00,91.66
1094.00,91.62
1093.00,91.58
1092.00,91.52
1091.00,91.46
1090.00,91.40
1089.00,91.35
1088.00,91.28
1087.00,91.22
1086.00,91.15
1085.00,91.06
1084.00,90.97
1083.00,90.88
1082.00,90.79
1081.00,90.70
1080.00,90.60
1079.00,90.50
1078.00,90.40
1077.00,90.29
1076.00,90.17
1075.00,90.05
1074.00,89.94
1073.00,89.82
1072.00,89.69
1071.00,89.57
1070.00,89.46
1069.00,89.35
1068.00,89.24
1067.00,89.14
1066.00,89.06
1065.00,88.97
1064.00,88.88
1063.00,88.78
1062.00,88.69
1061.00,88.57
1060.00,88.44
1059.00,88.29
1058.00,88.12
1057.00,87.91
1056.00,87.68
1055.00,87.41
1054.00,87.11
1053.00,86.77
1052.00,86.38
1051.00,85.98
1050.00,85.58
1049.00,85.18
1048.00,84.81
1047.00,84.49
1046.00,84.24
1045.00,84.05
1044.00,83.91
1043.00,83.80
1042.00,83.72
1041.00,83.62
1040.00,83.47
1039.00,83.25
1038.00,82.97
1037.00,82.58
1036.00,82.08
1035.00,81.49
1034.00,80.79
1033.00,79.96
1032.00,79.00
1031.00,77.93
1030.00,76.76
1029.00,75.47
1028.00,74.08
1027.00,72.64
1026.00,71.19
1025.00,69.77
1024.00,68.42
1023.00,67.23
1022.00,66.27
1021.00,65.58
1020.00,65.24
1019.00,65.28
1018.00,65.73
1017.00,66.54
1016.00,67.70
1015.00,69.14
1014.00,70.81
1013.00,72.60
1012.00,74.43
1011.00,76.26
1010.00,78.02
1009.00,79.68
1008.00,81.20
1007.00,82.59
1006.00,83.84
1005.00,84.95
1004.00,85.91
1003.00,86.76
1002.00,87.50
1001.00,88.15
1000.00,88.70
999.00,89.19
998.00,89.62
997.00,90.00
996.00,90.32
995.00,90.61
994.00,90.85
993.00,91.06
992.00,91.23
991.00,91.38
990.00,91.50
989.00,91.60
988.00,91.68
987.00,91.75
986.00,91.80
985.00,91.83
984.00,91.84
983.00,91.85
982.00,91.84
981.00,91.81
980.00,91.77
979.00,91.72
978.00,91.65
977.00,91.57
976.00,91.47
975.00,91.36
974.00,91.25
973.00,91.12
972.00,90.96
971.00,90.79
970.00,90.61
969.00,90.41
968.00,90.20
967.00,89.99
966.00,89.78
965.00,89.58
964.00,89.40
963.00,89.24
962.00,89.10
961.00,88.99
960.00,88.89
959.00,88.82
958.00,88.79
957.00,88.77
956.00,88.76
955.00,88.77
954.00,88.79
953.00,88.82
952.00,88.85
951.00,88.89
950.00,88.92
949.00,88.95
948.00,88.96
947.00,88.97
946.00,88.98
945.00,88.98
944.00,88.97
943.00,88.96
942.00,88.95
941.00,88.95
940.00,88.97
939.00,89.02
938.00,89.12
937.00,89.28
936.00,89.50
935.00,89.81
934.00,90.18
933.00,90.61
932.00,91.09
931.00,91.59
930.00,92.09
929.00,92.56
928.00,92.98
927.00,93.36
926.00,93.71
925.00,94.01
924.00,94.27
923.00,94.50
922.00,94.71
921.00,94.88
920.00,95.03
919.00,95.16
918.00,95.28
917.00,95.38
916.00,95.46
915.00,95.54
914.00,95.61
913.00,95.67
912.00,95.74
911.00,95.79
910.00,95.84
909.00,95.87
908.00,95.90
907.00,95.94
906.00,95.97
905.00,96.00
904.00,96.03
903.00,96.05
902.00,96.07
901.00,96.09
900.00,96.10
899.00,96.10
898.00,96.10
897.00,96.09
896.00,96.09
895.00,96.09
894.00,96.09
893.00,96.09
892.00,96.08
891.00,96.07
890.00,96.08
889.00,96.10
888.00,96.12
887.00,96.13
886.00,96.14
885.00,96.15
884.00,96.17
883.00,96.18
882.00,96.20
881.00,96.21
880.00,96.21
879.00,96.21
878.00,96.21
877.00,96.21
876.00,96.21
875.00,96.20
874.00,96.20
873.00,96.19
872.00,96.18
871.00,96.18
870.00,96.18
869.00,96.18
868.00,96.19
867.00,96.20
866.00,96.22
865.00,96.25
864.00,96.27
863.00,96.30
862.00,96.33
861.00,96.35
860.00,96.38
859.00,96.42
858.00,96.46
857.00,96.50
856.00,96.54
855.00,96.58
854.00,96.62
853.00,96.66
852.00,96.70
851.00,96.75
850.00,96.79
849.00,96.83
848.00,96.87
847.00,96.91
846.00,96.94
845.00,96.98
844.00,97.01
843.00,97.05
842.00,97.10
841.00,97.15
840.00,97.19
839.00,97.23
838.00,97.25
837.00,97.27
836.00,97.29
835.00,97.31
834.00,97.36
833.00,97.40
832.00,97.44
831.00,97.47
830.00,97.48
829.00,97.48
828.00,97.49
827.00,97.49
826.00,97.49
825.00,97.48
824.00,97.47
823.00,97.47
822.00,97.46
821.00,97.45
820.00,97.43
819.00,97.40
818.00,97.37
817.00,97.34
816.00,97.31
815.00,97.27
814.00,97.22
813.00,97.16
812.00,97.10
811.00,97.06
810.00,97.02
809.00,96.98
808.00,96.92
807.00,96.86
806.00,96.79
805.00,96.71
804.00,96.62
803.00,96.54
802.00,96.48
801.00,96.45
800.00,96.44
799.00,96.45
798.00,96.47
797.00,96.52
796.00,96.59
795.00,96.69
794.00,96.82
793.00,96.96
792.00,97.10
791.00,97.24
790.00,97.36
789.00,97.46
788.00,97.54
787.00,97.61
786.00,97.66
785.00,97.71
784.00,97.75
783.00,97.78
782.00,97.80
781.00,97.80
780.00,97.79
779.00,97.78
778.00,97.78
777.00,97.78
776.00,97.76
775.00,97.75
774.00,97.73
773.00,97.70
772.00,97.68
771.00,97.65
770.00,97.63
769.00,97.59
768.00,97.56
767.00,97.53
766.00,97.51
765.00,97.49
764.00,97.47
763.00,97.44
762.00,97.39
761.00,97.34
760.00,97.29
759.00,97.25
758.00,97.20
757.00,97.16
756.00,97.11
755.00,97.07
754.00,97.02
753.00,96.96
752.00,96.88
751.00,96.79
750.00,96.72
749.00,96.65
748.00,96.57
747.00,96.49
746.00,96.40
745.00,96.31
744.00,96.21
743.00,96.11
742.00,96.00
741.00,95.89
740.00,95.74
739.00,95.58
738.00,95.40
737.00,95.20
736.00,94.97
735.00,94.69
734.00,94.34
733.00,93.89
732.00,93.33
731.00,92.70
730.00,92.08
729.00,91.49
728.00,90.90
727.00,90.27
726.00,89.56
725.00,88.78
724.00,87.98
723.00,87.22
722.00,86.58
721.00,86.15
720.00,86.05
719.00,86.39
718.00,87.18
717.00,88.34
716.00,89.72
715.00,91.12
714.00,92.37
713.00,93.38
712.00,94.18
711.00,94.82
710.00,95.33
709.00,95.75
708.00,96.08
707.00,96.36
706.00,96.60
705.00,96.81
704.00,97.00
703.00,97.17
702.00,97.32
701.00,97.45
700.00,97.56
699.00,97.66
698.00,97.74
697.00,97.80
696.00,97.86
695.00,97.91
694.00,97.95
693.00,97.98
692.00,97.99
691.00,98.00
690.00,98.03
689.00,98.07
688.00,98.10
687.00,98.12
686.00,98.13
685.00,98.15
684.00,98.18
683.00,98.20
682.00,98.22
681.00,98.22
680.00,98.20
679.00,98.20
678.00,98.21
677.00,98.22
676.00,98.21
675.00,98.19
674.00,98.18
673.00,98.17
672.00,98.17
671.00,98.17
670.00,98.16
669.00,98.13
668.00,98.05
667.00,97.96
666.00,97.90
665.00,97.84
664.00,97.76
663.00,97.67
662.00,97.59
661.00,97.51
660.00,97.43
659.00,97.33
658.00,97.20
657.00,97.05
656.00,96.89
655.00,96.73
654.00,96.55
653.00,96.35
652.00,96.13
651.00,95.93
650.00,95.75
