Created as New Dataset,EVOH (38mol% ethylene) Soarnol
cm-1,%T
4000.00,98.45
3999.00,98.46
3998.00,98.46
3997.00,98.46
3996.00,98.46
3995.00,98.47
3994.00,98.47
3993.00,98.47
3992.00,98.47
3991.00,98.47
3990.00,98.48
3989.00,98.48
3988.00,98.48
3987.00,98.47
3986.00,98.47
3985.00,98.46
3984.00,98.46
3983.00,98.46
3982.00,98.46
3981.00,98.46
3980.00,98.47
3979.00,98.47
3978.00,98.47
3977.00,98.47
3976.00,98.47
3975.00,98.47
3974.00,98.47
3973.00,98.47
3972.00,98.47
3971.00,98.47
3970.00,98.47
3969.00,98.47
3968.00,98.47
3967.00,98.47
3966.00,98.47
3965.00,98.47
3964.00,98.47
3963.00,98.47
3962.00,98.47
3961.00,98.48
3960.00,98.48
3959.00,98.48
3958.00,98.47
3957.00,98.47
3956.00,98.47
3955.00,98.48
3954.00,98.48
3953.00,98.48
3952.00,98.47
3951.00,98.47
3950.00,98.47
3949.00,98.47
3948.00,98.47
3947.00,98.47
3946.00,98.48
3945.00,98.48
3944.00,98.49
3943.00,98.49
3942.00,98.49
3941.00,98.48
3940.00,98.48
3939.00,98.48
3938.00,98.48
3937.00,98.48
3936.00,98.48
3935.00,98.48
3934.00,98.48
3933.00,98.48
3932.00,98.48
3931.00,98.48
3930.00,98.48
3929.00,98.48
3928.00,98.48
3927.00,98.48
3926.00,98.48
3925.00,98.48
3924.00,98.48
3923.00,98.48
3922.00,98.48
3921.00,98.48
3920.00,98.48
3919.00,98.48
3918.00,98.48
3917.00,98.48
3916.00,98.48
3915.00,98.48
3914.00,98.48
3913.00,98.48
3912.00,98.48
3911.00,98.49
3910.00,98.48
3909.00,98.48
3908.00,98.48
3907.00,98.47
3906.00,98.47
3905.00,98.47
3904.00,98.47
3903.00,98.47
3902.00,98.47
3901.00,98.47
3900.00,98.47
3899.00,98.47
3898.00,98.47
3897.00,98.47
3896.00,98.47
3895.00,98.47
3894.00,98.47
3893.00,98.47
3892.00,98.47
3891.00,98.48
3890.00,98.47
3889.00,98.47
3888.00,98.47
3887.00,98.47
3886.00,98.47
3885.00,98.47
3884.00,98.47
3883.00,98.47
3882.00,98.47
3881.00,98.47
3880.00,98.48
3879.00,98.48
3878.00,98.48
3877.00,98.48
3876.00,98.48
3875.00,98.48
3874.00,98.48
3873.00,98.47
3872.00,98.47
3871.00,98.47
3870.00,98.47
3869.00,98.48
3868.00,98.48
3867.00,98.48
3866.00,98.48
3865.00,98.48
3864.00,98.47
3863.00,98.47
3862.00,98.47
3861.00,98.47
3860.00,98.47
3859.00,98.48
3858.00,98.48
3857.00,98.48
3856.00,98.48
3855.00,98.48
3854.00,98.48
3853.00,98.47
3852.00,98.47
3851.00,98.47
3850.00,98.47
3849.00,98.47
3848.00,98.48
3847.00,98.48
3846.00,98.48
3845.00,98.48
3844.00,98.48
3843.00,98.48
3842.00,98.47
3841.00,98.47
3840.00,98.47
3839.00,98.47
3838.00,98.48
3837.00,98.48
3836.00,98.48
3835.00,98.48
3834.00,98.48
3833.00,98.48
3832.00,98.48
3831.00,98.47
3830.00,98.47
3829.00,98.47
3828.00,98.47
3827.00,98.48
3826.00,98.48
3825.00,98.47
3824.00,98.47
3823.00,98.47
3822.00,98.47
3821.00,98.47
3820.00,98.47
3819.00,98.47
3818.00,98.47
3817.00,98.47
3816.00,98.47
3815.00,98.47
3814.00,98.48
3813.00,98.48
3812.00,98.48
3811.00,98.48
3810.00,98.48
3809.00,98.48
3808.00,98.48
3807.00,98.48
3806.00,98.48
3805.00,98.47
3804.00,98.47
3803.00,98.47
3802.00,98.47
3801.00,98.47
3800.00,98.47
3799.00,98.47
3798.00,98.46
3797.00,98.46
3796.00,98.47
3795.00,98.47
3794.00,98.47
3793.00,98.47
3792.00,98.47
3791.00,98.47
3790.00,98.47
3789.00,98.48
3788.00,98.48
3787.00,98.47
3786.00,98.47
3785.00,98.47
3784.00,98.47
3783.00,98.47
3782.00,98.47
3781.00,98.47
3780.00,98.47
3779.00,98.47
3778.00,98.47
3777.00,98.47
3776.00,98.47
3775.00,98.46
3774.00,98.46
3773.00,98.46
3772.00,98.46
3771.00,98.46
3770.00,98.46
3769.00,98.46
3768.00,98.46
3767.00,98.46
3766.00,98.46
3765.00,98.46
3764.00,98.46
3763.00,98.45
3762.00,98.45
3761.00,98.45
3760.00,98.45
3759.00,98.45
3758.00,98.45
3757.00,98.45
3756.00,98.45
3755.00,98.45
3754.00,98.45
3753.00,98.45
3752.00,98.45
3751.00,98.45
3750.00,98.45
3749.00,98.44
3748.00,98.43
3747.00,98.42
3746.00,98.43
3745.00,98.43
3744.00,98.44
3743.00,98.44
3742.00,98.44
3741.00,98.44
3740.00,98.44
3739.00,98.45
3738.00,98.45
3737.00,98.46
3736.00,98.46
3735.00,98.45
3734.00,98.45
3733.00,98.45
3732.00,98.45
3731.00,98.45
3730.00,98.45
3729.00,98.45
3728.00,98.45
3727.00,98.46
3726.00,98.46
3725.00,98.47
3724.00,98.47
3723.00,98.47
3722.00,98.47
3721.00,98.47
3720.00,98.47
3719.00,98.47
3718.00,98.47
3717.00,98.46
3716.00,98.46
3715.00,98.46
3714.00,98.46
3713.00,98.46
3712.00,98.46
3711.00,98.46
3710.00,98.46
3709.00,98.47
3708.00,98.47
3707.00,98.47
3706.00,98.47
3705.00,98.47
3704.00,98.47
3703.00,98.47
3702.00,98.47
3701.00,98.47
3700.00,98.47
3699.00,98.48
3698.00,98.48
3697.00,98.48
3696.00,98.48
3695.00,98.47
3694.00,98.47
3693.00,98.46
3692.00,98.46
3691.00,98.45
3690.00,98.45
3689.00,98.45
3688.00,98.45
3687.00,98.44
3686.00,98.44
3685.00,98.43
3684.00,98.43
3683.00,98.43
3682.00,98.42
3681.00,98.41
3680.00,98.40
3679.00,98.39
3678.00,98.39
3677.00,98.38
3676.00,98.37
3675.00,98.37
3674.00,98.36
3673.00,98.35
3672.00,98.35
3671.00,98.35
3670.00,98.35
3669.00,98.35
3668.00,98.35
3667.00,98.36
3666.00,98.36
3665.00,98.36
3664.00,98.37
3663.00,98.36
3662.00,98.36
3661.00,98.35
3660.00,98.35
3659.00,98.34
3658.00,98.34
3657.00,98.34
3656.00,98.33
3655.00,98.32
3654.00,98.32
3653.00,98.31
3652.00,98.31
3651.00,98.30
3650.00,98.29
3649.00,98.27
3648.00,98.26
3647.00,98.26
3646.00,98.25
3645.00,98.25
3644.00,98.25
3643.00,98.24
3642.00,98.23
3641.00,98.23
3640.00,98.22
3639.00,98.21
3638.00,98.20
3637.00,98.18
3636.00,98.17
3635.00,98.16
3634.00,98.14
3633.00,98.12
3632.00,98.10
3631.00,98.07
3630.00,98.05
3629.00,98.02
3628.00,98.00
3627.00,97.99
3626.00,97.97
3625.00,97.96
3624.00,97.95
3623.00,97.94
3622.00,97.93
3621.00,97.91
3620.00,97.89
3619.00,97.87
3618.00,97.85
3617.00,97.84
3616.00,97.83
3615.00,97.81
3614.00,97.80
3613.00,97.78
3612.00,97.77
3611.00,97.75
3610.00,97.74
3609.00,97.73
3608.00,97.72
3607.00,97.70
3606.00,97.69
3605.00,97.67
3604.00,97.65
3603.00,97.63
3602.00,97.61
3601.00,97.59
3600.00,97.57
3599.00,97.55
3598.00,97.53
3597.00,97.51
3596.00,97.49
3595.00,97.47
3594.00,97.45
3593.00,97.44
3592.00,97.42
3591.00,97.40
3590.00,97.38
3589.00,97.36
3588.00,97.34
3587.00,97.31
3586.00,97.29
3585.00,97.27
3584.00,97.25
3583.00,97.23
3582.00,97.20
3581.00,97.18
3580.00,97.16
3579.00,97.13
3578.00,97.11
3577.00,97.08
3576.00,97.06
3575.00,97.03
3574.00,97.00
3573.00,96.96
3572.00,96.93
3571.00,96.90
3570.00,96.87
3569.00,96.83
3568.00,96.79
3567.00,96.74
3566.00,96.70
3565.00,96.67
3564.00,96.64
3563.00,96.61
3562.00,96.57
3561.00,96.53
3560.00,96.49
3559.00,96.45
3558.00,96.41
3557.00,96.37
3556.00,96.34
3555.00,96.30
3554.00,96.25
3553.00,96.21
3552.00,96.16
3551.00,96.11
3550.00,96.06
3549.00,96.02
3548.00,95.97
3547.00,95.92
3546.00,95.87
3545.00,95.82
3544.00,95.77
3543.00,95.73
3542.00,95.68
3541.00,95.64
3540.00,95.59
3539.00,95.53
3538.00,95.47
3537.00,95.41
3536.00,95.35
3535.00,95.30
3534.00,95.24
3533.00,95.19
3532.00,95.13
3531.00,95.08
3530.00,95.01
3529.00,94.95
3528.00,94.89
3527.00,94.83
3526.00,94.76
3525.00,94.70
3524.00,94.63
3523.00,94.57
3522.00,94.51
3521.00,94.44
3520.00,94.38
3519.00,94.32
3518.00,94.25
3517.00,94.19
3516.00,94.12
3515.00,94.06
3514.00,93.99
3513.00,93.92
3512.00,93.86
3511.00,93.79
3510.00,93.72
3509.00,93.65
3508.00,93.58
3507.00,93.51
3506.00,93.44
3505.00,93.37
3504.00,93.29
3503.00,93.22
3502.00,93.15
3501.00,93.08
3500.00,93.02
3499.00,92.95
3498.00,92.88
3497.00,92.81
3496.00,92.73
3495.00,92.66
3494.00,92.59
3493.00,92.52
3492.00,92.44
3491.00,92.37
3490.00,92.30
3489.00,92.22
3488.00,92.15
3487.00,92.08
3486.00,92.00
3485.00,91.93
3484.00,91.85
3483.00,91.77
3482.00,91.70
3481.00,91.62
3480.00,91.55
3479.00,91.48
3478.00,91.41
3477.00,91.33
3476.00,91.26
3475.00,91.18
3474.00,91.10
3473.00,91.03
3472.00,90.95
3471.00,90.87
3470.00,90.80
3469.00,90.72
3468.00,90.64
3467.00,90.57
3466.00,90.49
3465.00,90.42
3464.00,90.34
3463.00,90.26
3462.00,90.18
3461.00,90.10
3460.00,90.03
3459.00,89.95
3458.00,89.87
3457.00,89.80
3456.00,89.72
3455.00,89.64
3454.00,89.57
3453.00,89.49
3452.00,89.41
3451.00,89.34
3450.00,89.26
3449.00,89.18
3448.00,89.10
3447.00,89.02
3446.00,88.94
3445.00,88.86
3444.00,88.78
3443.00,88.71
3442.00,88.63
3441.00,88.55
3440.00,88.47
3439.00,88.39
3438.00,88.32
3437.00,88.24
3436.00,88.16
3435.00,88.08
3434.00,88.01
3433.00,87.93
3432.00,87.86
3431.00,87.78
3430.00,87.71
3429.00,87.63
3428.00,87.55
3427.00,87.48
3426.00,87.40
3425.00,87.33
3424.00,87.25
3423.00,87.18
3422.00,87.10
3421.00,87.02
3420.00,86.94
3419.00,86.87
3418.00,86.80
3417.00,86.72
3416.00,86.65
3415.00,86.58
3414.00,86.51
3413.00,86.43
3412.00,86.36
3411.00,86.29
3410.00,86.22
3409.00,86.15
3408.00,86.07
3407.00,86.01
3406.00,85.94
3405.00,85.87
3404.00,85.80
3403.00,85.73
3402.00,85.66
3401.00,85.59
3400.00,85.52
3399.00,85.46
3398.00,85.40
3397.00,85.33
3396.00,85.26
3395.00,85.20
3394.00,85.13
3393.00,85.07
3392.00,85.00
3391.00,84.94
3390.00,84.88
3389.00,84.83
3388.00,84.77
3387.00,84.72
3386.00,84.66
3385.00,84.60
3384.00,84.54
3383.00,84.48
3382.00,84.42
3381.00,84.36
3380.00,84.31
3379.00,84.26
3378.00,84.20
3377.00,84.15
3376.00,84.10
3375.00,84.05
3374.00,84.00
3373.00,83.95
3372.00,83.90
3371.00,83.85
3370.00,83.80
3369.00,83.75
3368.00,83.70
3367.00,83.66
3366.00,83.61
3365.00,83.57
3364.00,83.52
3363.00,83.48
3362.00,83.44
3361.00,83.40
3360.00,83.36
3359.00,83.32
3358.00,83.28
3357.00,83.24
3356.00,83.20
3355.00,83.16
3354.00,83.12
3353.00,83.08
3352.00,83.05
3351.00,83.01
3350.00,82.98
3349.00,82.96
3348.00,82.93
3347.00,82.90
3346.00,82.86
3345.00,82.83
3344.00,82.80
3343.00,82.77
3342.00,82.74
3341.00,82.71
3340.00,82.68
3339.00,82.66
3338.00,82.63
3337.00,82.61
3336.00,82.59
3335.00,82.57
3334.00,82.55
3333.00,82.54
3332.00,82.52
3331.00,82.50
3330.00,82.48
3329.00,82.45
3328.00,82.43
3327.00,82.41
3326.00,82.40
3325.00,82.39
3324.00,82.38
3323.00,82.37
3322.00,82.36
3321.00,82.34
3320.00,82.33
3319.00,82.32
3318.00,82.30
3317.00,82.29
3316.00,82.28
3315.00,82.27
3314.00,82.26
3313.00,82.25
3312.00,82.24
3311.00,82.24
3310.00,82.23
3309.00,82.22
3308.00,82.22
3307.00,82.22
3306.00,82.22
3305.00,82.22
3304.00,82.22
3303.00,82.23
3302.00,82.23
3301.00,82.23
3300.00,82.24
3299.00,82.24
3298.00,82.24
3297.00,82.24
3296.00,82.25
3295.00,82.26
3294.00,82.27
3293.00,82.28
3292.00,82.29
3291.00,82.30
3290.00,82.31
3289.00,82.33
3288.00,82.34
3287.00,82.36
3286.00,82.38
3285.00,82.40
3284.00,82.42
3283.00,82.43
3282.00,82.45
3281.00,82.47
3280.00,82.48
3279.00,82.50
3278.00,82.52
3277.00,82.54
3276.00,82.56
3275.00,82.58
3274.00,82.60
3273.00,82.62
3272.00,82.64
3271.00,82.67
3270.00,82.70
3269.00,82.73
3268.00,82.77
3267.00,82.80
3266.00,82.83
3265.00,82.85
3264.00,82.88
3263.00,82.91
3262.00,82.95
3261.00,82.98
3260.00,83.02
3259.00,83.05
3258.00,83.09
3257.00,83.13
3256.00,83.16
3255.00,83.20
3254.00,83.23
3253.00,83.27
3252.00,83.31
3251.00,83.34
3250.00,83.38
3249.00,83.43
3248.00,83.47
3247.00,83.52
3246.00,83.56
3245.00,83.61
3244.00,83.66
3243.00,83.70
3242.00,83.75
3241.00,83.80
3240.00,83.84
3239.00,83.89
3238.00,83.94
3237.00,83.99
3236.00,84.03
3235.00,84.08
3234.00,84.14
3233.00,84.19
3232.00,84.24
3231.00,84.29
3230.00,84.35
3229.00,84.40
3228.00,84.46
3227.00,84.51
3226.00,84.57
3225.00,84.62
3224.00,84.68
3223.00,84.73
3222.00,84.79
3221.00,84.85
3220.00,84.91
3219.00,84.97
3218.00,85.03
3217.00,85.08
3216.00,85.14
3215.00,85.21
3214.00,85.27
3213.00,85.33
3212.00,85.40
3211.00,85.46
3210.00,85.52
3209.00,85.58
3208.00,85.64
3207.00,85.71
3206.00,85.77
3205.00,85.84
3204.00,85.90
3203.00,85.96
3202.00,86.03
3201.00,86.10
3200.00,86.17
3199.00,86.24
3198.00,86.31
3197.00,86.37
3196.00,86.44
3195.00,86.50
3194.00,86.57
3193.00,86.64
3192.00,86.71
3191.00,86.78
3190.00,86.85
3189.00,86.93
3188.00,87.00
3187.00,87.07
3186.00,87.13
3185.00,87.20
3184.00,87.27
3183.00,87.34
3182.00,87.41
3181.00,87.47
3180.00,87.54
3179.00,87.61
3178.00,87.69
3177.00,87.76
3176.00,87.83
3175.00,87.90
3174.00,87.97
3173.00,88.04
3172.00,88.11
3171.00,88.18
3170.00,88.25
3169.00,88.32
3168.00,88.39
3167.00,88.46
3166.00,88.54
3165.00,88.61
3164.00,88.68
3163.00,88.75
3162.00,88.82
3161.00,88.89
3160.00,88.95
3159.00,89.02
3158.00,89.09
3157.00,89.16
3156.00,89.23
3155.00,89.29
3154.00,89.36
3153.00,89.43
3152.00,89.50
3151.00,89.56
3150.00,89.63
3149.00,89.70
3148.00,89.76
3147.00,89.83
3146.00,89.90
3145.00,89.97
3144.00,90.04
3143.00,90.10
3142.00,90.17
3141.00,90.23
3140.00,90.29
3139.00,90.35
3138.00,90.42
3137.00,90.48
3136.00,90.55
3135.00,90.61
3134.00,90.68
3133.00,90.74
3132.00,90.80
3131.00,90.86
3130.00,90.92
3129.00,90.98
3128.00,91.04
3127.00,91.10
3126.00,91.16
3125.00,91.22
3124.00,91.28
3123.00,91.34
3122.00,91.40
3121.00,91.46
3120.00,91.52
3119.00,91.58
3118.00,91.63
3117.00,91.69
3116.00,91.74
3115.00,91.80
3114.00,91.86
3113.00,91.91
3112.00,91.97
3111.00,92.03
3110.00,92.08
3109.00,92.13
3108.00,92.18
3107.00,92.24
3106.00,92.29
3105.00,92.34
3104.00,92.40
3103.00,92.45
3102.00,92.50
3101.00,92.55
3100.00,92.60
3099.00,92.64
3098.00,92.69
3097.00,92.74
3096.00,92.79
3095.00,92.84
3094.00,92.89
3093.00,92.93
3092.00,92.98
3091.00,93.03
3090.00,93.07
3089.00,93.11
3088.00,93.16
3087.00,93.20
3086.00,93.25
3085.00,93.29
3084.00,93.34
3083.00,93.38
3082.00,93.42
3081.00,93.47
3080.00,93.51
3079.00,93.55
3078.00,93.59
3077.00,93.64
3076.00,93.68
3075.00,93.72
3074.00,93.76
3073.00,93.80
3072.00,93.84
3071.00,93.88
3070.00,93.92
3069.00,93.96
3068.00,93.99
3067.00,94.03
3066.00,94.07
3065.00,94.10
3064.00,94.14
3063.00,94.17
3062.00,94.21
3061.00,94.25
3060.00,94.28
3059.00,94.31
3058.00,94.34
3057.00,94.38
3056.00,94.41
3055.00,94.45
3054.00,94.48
3053.00,94.52
3052.00,94.55
3051.00,94.58
3050.00,94.62
3049.00,94.65
3048.00,94.68
3047.00,94.70
3046.00,94.73
3045.00,94.76
3044.00,94.79
3043.00,94.82
3042.00,94.85
3041.00,94.88
3040.00,94.91
3039.00,94.93
3038.00,94.96
3037.00,94.99
3036.00,95.01
3035.00,95.04
3034.00,95.06
3033.00,95.09
3032.00,95.12
3031.00,95.14
3030.00,95.16
3029.00,95.18
3028.00,95.20
3027.00,95.22
3026.00,95.24
3025.00,95.27
3024.00,95.30
3023.00,95.33
3022.00,95.35
3021.00,95.37
3020.00,95.39
3019.00,95.41
3018.00,95.43
3017.00,95.45
3016.00,95.47
3015.00,95.48
3014.00,95.50
3013.00,95.52
3012.00,95.54
3011.00,95.56
3010.00,95.58
3009.00,95.59
3008.00,95.61
3007.00,95.62
3006.00,95.64
3005.00,95.65
3004.00,95.66
3003.00,95.67
3002.00,95.68
3001.00,95.69
3000.00,95.70
2999.00,95.71
2998.00,95.72
2997.00,95.72
2996.00,95.73
2995.00,95.73
2994.00,95.73
2993.00,95.73
2992.00,95.73
2991.00,95.73
2990.00,95.72
2989.00,95.71
2988.00,95.70
2987.00,95.68
2986.00,95.66
2985.00,95.64
2984.00,95.61
2983.00,95.58
2982.00,95.55
2981.00,95.51
2980.00,95.46
2979.00,95.40
2978.00,95.34
2977.00,95.27
2976.00,95.19
2975.00,95.11
2974.00,95.01
2973.00,94.90
2972.00,94.78
2971.00,94.65
2970.00,94.51
2969.00,94.34
2968.00,94.16
2967.00,93.96
2966.00,93.74
2965.00,93.50
2964.00,93.24
2963.00,92.95
2962.00,92.64
2961.00,92.31
2960.00,91.96
2959.00,91.58
2958.00,91.19
2957.00,90.77
2956.00,90.32
2955.00,89.86
2954.00,89.38
2953.00,88.87
2952.00,88.34
2951.00,87.79
2950.00,87.22
2949.00,86.63
2948.00,86.03
2947.00,85.41
2946.00,84.79
2945.00,84.16
2944.00,83.54
2943.00,82.91
2942.00,82.31
2941.00,81.72
2940.00,81.16
2939.00,80.64
2938.00,80.15
2937.00,79.70
2936.00,79.30
2935.00,78.94
2934.00,78.62
2933.00,78.36
2932.00,78.14
2931.00,77.96
2930.00,77.83
2929.00,77.73
2928.00,77.68
2927.00,77.65
2926.00,77.66
2925.00,77.69
2924.00,77.74
2923.00,77.81
2922.00,77.88
2921.00,77.97
2920.00,78.06
2919.00,78.13
2918.00,78.20
2917.00,78.26
2916.00,78.29
2915.00,78.31
2914.00,78.31
2913.00,78.29
2912.00,78.26
2911.00,78.22
2910.00,78.19
2909.00,78.17
2908.00,78.17
2907.00,78.21
2906.00,78.28
2905.00,78.39
2904.00,78.55
2903.00,78.76
2902.00,79.03
2901.00,79.34
2900.00,79.70
2899.00,80.10
2898.00,80.53
2897.00,80.99
2896.00,81.46
2895.00,81.94
2894.00,82.42
2893.00,82.89
2892.00,83.34
2891.00,83.77
2890.00,84.17
2889.00,84.55
2888.00,84.89
2887.00,85.20
2886.00,85.48
2885.00,85.73
2884.00,85.96
2883.00,86.16
2882.00,86.33
2881.00,86.47
2880.00,86.59
2879.00,86.68
2878.00,86.75
2877.00,86.79
2876.00,86.81
2875.00,86.81
2874.00,86.78
2873.00,86.72
2872.00,86.65
2871.00,86.55
2870.00,86.43
2869.00,86.29
2868.00,86.13
2867.00,85.94
2866.00,85.73
2865.00,85.49
2864.00,85.24
2863.00,84.97
2862.00,84.69
2861.00,84.40
2860.00,84.10
2859.00,83.82
2858.00,83.54
2857.00,83.28
2856.00,83.06
2855.00,82.88
2854.00,82.75
2853.00,82.69
2852.00,82.70
2851.00,82.79
2850.00,82.95
2849.00,83.19
2848.00,83.49
2847.00,83.83
2846.00,84.20
2845.00,84.59
2844.00,84.98
2843.00,85.37
2842.00,85.75
2841.00,86.13
2840.00,86.49
2839.00,86.83
2838.00,87.16
2837.00,87.47
2836.00,87.76
2835.00,88.05
2834.00,88.32
2833.00,88.59
2832.00,88.86
2831.00,89.12
2830.00,89.36
2829.00,89.60
2828.00,89.83
2827.00,90.04
2826.00,90.25
2825.00,90.44
2824.00,90.62
2823.00,90.79
2822.00,90.95
2821.00,91.10
2820.00,91.24
2819.00,91.38
2818.00,91.52
2817.00,91.65
2816.00,91.77
2815.00,91.89
2814.00,92.00
2813.00,92.11
2812.00,92.22
2811.00,92.33
2810.00,92.43
2809.00,92.53
2808.00,92.63
2807.00,92.73
2806.00,92.82
2805.00,92.91
2804.00,93.00
2803.00,93.09
2802.00,93.17
2801.00,93.25
2800.00,93.32
2799.00,93.39
2798.00,93.46
2797.00,93.52
2796.00,93.58
2795.00,93.64
2794.00,93.70
2793.00,93.75
2792.00,93.81
2791.00,93.86
2790.00,93.91
2789.00,93.96
2788.00,94.00
2787.00,94.04
2786.00,94.08
2785.00,94.12
2784.00,94.15
2783.00,94.19
2782.00,94.23
2781.00,94.26
2780.00,94.29
2779.00,94.32
2778.00,94.35
2777.00,94.38
2776.00,94.41
2775.00,94.44
2774.00,94.46
2773.00,94.48
2772.00,94.50
2771.00,94.52
2770.00,94.54
2769.00,94.56
2768.00,94.58
2767.00,94.59
2766.00,94.61
2765.00,94.63
2764.00,94.64
2763.00,94.65
2762.00,94.66
2761.00,94.68
2760.00,94.69
2759.00,94.70
2758.00,94.71
2757.00,94.72
2756.00,94.74
2755.00,94.75
2754.00,94.76
2753.00,94.77
2752.00,94.77
2751.00,94.78
2750.00,94.79
2749.00,94.80
2748.00,94.81
2747.00,94.82
2746.00,94.83
2745.00,94.84
2744.00,94.85
2743.00,94.85
2742.00,94.86
2741.00,94.87
2740.00,94.89
2739.00,94.90
2738.00,94.91
2737.00,94.92
2736.00,94.93
2735.00,94.95
2734.00,94.96
2733.00,94.97
2732.00,94.98
2731.00,95.00
2730.00,95.01
2729.00,95.02
2728.00,95.03
2727.00,95.05
2726.00,95.06
2725.00,95.07
2724.00,95.08
2723.00,95.09
2722.00,95.10
2721.00,95.11
2720.00,95.12
2719.00,95.14
2718.00,95.15
2717.00,95.16
2716.00,95.17
2715.00,95.18
2714.00,95.18
2713.00,95.19
2712.00,95.20
2711.00,95.21
2710.00,95.21
2709.00,95.22
2708.00,95.22
2707.00,95.22
2706.00,95.23
2705.00,95.23
2704.00,95.23
2703.00,95.24
2702.00,95.24
2701.00,95.24
2700.00,95.25
2699.00,95.25
2698.00,95.25
2697.00,95.25
2696.00,95.25
2695.00,95.25
2694.00,95.25
2693.00,95.25
2692.00,95.26
2691.00,95.26
2690.00,95.26
2689.00,95.26
2688.00,95.26
2687.00,95.27
2686.00,95.27
2685.00,95.28
2684.00,95.29
2683.00,95.29
2682.00,95.29
2681.00,95.30
2680.00,95.30
2679.00,95.31
2678.00,95.32
2677.00,95.32
2676.00,95.33
2675.00,95.34
2674.00,95.35
2673.00,95.36
2672.00,95.36
2671.00,95.37
2670.00,95.38
2669.00,95.39
2668.00,95.39
2667.00,95.40
2666.00,95.41
2665.00,95.41
2664.00,95.41
2663.00,95.41
2662.00,95.42
2661.00,95.42
2660.00,95.42
2659.00,95.43
2658.00,95.43
2657.00,95.44
2656.00,95.44
2655.00,95.44
2654.00,95.45
2653.00,95.45
2652.00,95.45
2651.00,95.46
2650.00,95.47
2649.00,95.48
2648.00,95.49
2647.00,95.50
2646.00,95.51
2645.00,95.52
2644.00,95.53
2643.00,95.54
2642.00,95.55
2641.00,95.56
2640.00,95.57
2639.00,95.57
2638.00,95.58
2637.00,95.59
2636.00,95.60
2635.00,95.61
2634.00,95.63
2633.00,95.64
2632.00,95.65
2631.00,95.65
2630.00,95.66
2629.00,95.67
2628.00,95.68
2627.00,95.69
2626.00,95.70
2625.00,95.71
2624.00,95.72
2623.00,95.73
2622.00,95.74
2621.00,95.75
2620.00,95.76
2619.00,95.78
2618.00,95.79
2617.00,95.80
2616.00,95.81
2615.00,95.82
2614.00,95.84
2613.00,95.85
2612.00,95.86
2611.00,95.87
2610.00,95.87
2609.00,95.88
2608.00,95.89
2607.00,95.90
2606.00,95.91
2605.00,95.92
2604.00,95.93
2603.00,95.94
2602.00,95.95
2601.00,95.96
2600.00,95.97
2599.00,95.98
2598.00,95.99
2597.00,96.00
2596.00,96.01
2595.00,96.02
2594.00,96.03
2593.00,96.04
2592.00,96.04
2591.00,96.05
2590.00,96.06
2589.00,96.07
2588.00,96.07
2587.00,96.08
2586.00,96.09
2585.00,96.10
2584.00,96.11
2583.00,96.12
2582.00,96.13
2581.00,96.13
2580.00,96.14
2579.00,96.15
2578.00,96.16
2577.00,96.16
2576.00,96.17
2575.00,96.18
2574.00,96.18
2573.00,96.19
2572.00,96.20
2571.00,96.21
2570.00,96.22
2569.00,96.22
2568.00,96.23
2567.00,96.23
2566.00,96.23
2565.00,96.24
2564.00,96.25
2563.00,96.25
2562.00,96.26
2561.00,96.27
2560.00,96.27
2559.00,96.27
2558.00,96.28
2557.00,96.28
2556.00,96.29
2555.00,96.30
2554.00,96.30
2553.00,96.30
2552.00,96.31
2551.00,96.32
2550.00,96.32
2549.00,96.33
2548.00,96.34
2547.00,96.34
2546.00,96.34
2545.00,96.34
2544.00,96.34
2543.00,96.35
2542.00,96.36
2541.00,96.36
2540.00,96.36
2539.00,96.37
2538.00,96.37
2537.00,96.38
2536.00,96.38
2535.00,96.39
2534.00,96.39
2533.00,96.40
2532.00,96.40
2531.00,96.41
2530.00,96.41
2529.00,96.42
2528.00,96.42
2527.00,96.43
2526.00,96.43
2525.00,96.43
2524.00,96.43
2523.00,96.44
2522.00,96.44
2521.00,96.44
2520.00,96.45
2519.00,96.45
2518.00,96.46
2517.00,96.47
2516.00,96.48
2515.00,96.49
2514.00,96.49
2513.00,96.50
2512.00,96.50
2511.00,96.51
2510.00,96.51
2509.00,96.52
2508.00,96.52
2507.00,96.53
2506.00,96.54
2505.00,96.54
2504.00,96.54
2503.00,96.54
2502.00,96.55
2501.00,96.55
2500.00,96.55
2499.00,96.56
2498.00,96.56
2497.00,96.56
2496.00,96.57
2495.00,96.58
2494.00,96.59
2493.00,96.59
2492.00,96.60
2491.00,96.61
2490.00,96.62
2489.00,96.63
2488.00,96.63
2487.00,96.63
2486.00,96.64
2485.00,96.64
2484.00,96.65
2483.00,96.66
2482.00,96.66
2481.00,96.66
2480.00,96.66
2479.00,96.66
2478.00,96.67
2477.00,96.67
2476.00,96.68
2475.00,96.68
2474.00,96.69
2473.00,96.70
2472.00,96.70
2471.00,96.70
2470.00,96.70
2469.00,96.70
2468.00,96.70
2467.00,96.71
2466.00,96.71
2465.00,96.72
2464.00,96.72
2463.00,96.72
2462.00,96.72
2461.00,96.72
2460.00,96.72
2459.00,96.72
2458.00,96.72
2457.00,96.72
2456.00,96.72
2455.00,96.71
2454.00,96.71
2453.00,96.71
2452.00,96.72
2451.00,96.72
2450.00,96.73
2449.00,96.74
2448.00,96.74
2447.00,96.75
2446.00,96.75
2445.00,96.76
2444.00,96.76
2443.00,96.76
2442.00,96.76
2441.00,96.77
2440.00,96.77
2439.00,96.78
2438.00,96.78
2437.00,96.79
2436.00,96.79
2435.00,96.80
2434.00,96.80
2433.00,96.81
2432.00,96.81
2431.00,96.82
2430.00,96.82
2429.00,96.82
2428.00,96.82
2427.00,96.83
2426.00,96.83
2425.00,96.84
2424.00,96.84
2423.00,96.85
2422.00,96.85
2421.00,96.84
2420.00,96.85
2419.00,96.85
2418.00,96.86
2417.00,96.86
2416.00,96.87
2415.00,96.87
2414.00,96.88
2413.00,96.88
2412.00,96.88
2411.00,96.88
2410.00,96.88
2409.00,96.88
2408.00,96.89
2407.00,96.90
2406.00,96.91
2405.00,96.92
2404.00,96.93
2403.00,96.93
2402.00,96.94
2401.00,96.94
2400.00,96.95
2399.00,96.95
2398.00,96.96
2397.00,96.96
2396.00,96.96
2395.00,96.96
2394.00,96.95
2393.00,96.95
2392.00,96.96
2391.00,96.96
2390.00,96.97
2389.00,96.98
2388.00,96.99
2387.00,96.99
2386.00,97.00
2385.00,97.01
2384.00,97.01
2383.00,97.02
2382.00,97.03
2381.00,97.03
2380.00,97.04
2379.00,97.05
2378.00,97.05
2377.00,97.06
2376.00,97.06
2375.00,97.06
2374.00,97.06
2373.00,97.06
2372.00,97.06
2371.00,97.07
2370.00,97.08
2369.00,97.09
2368.00,97.10
2367.00,97.11
2366.00,97.11
2365.00,97.11
2364.00,97.09
2363.00,97.08
2362.00,97.08
2361.00,97.08
2360.00,97.09
2359.00,97.09
2358.00,97.09
2357.00,97.09
2356.00,97.09
2355.00,97.10
2354.00,97.11
2353.00,97.11
2352.00,97.10
2351.00,97.10
2350.00,97.09
2349.00,97.10
2348.00,97.10
2347.00,97.10
2346.00,97.10
2345.00,97.09
2344.00,97.07
2343.00,97.06
2342.00,97.05
2341.00,97.04
2340.00,97.04
2339.00,97.04
2338.00,97.04
2337.00,97.04
2336.00,97.04
2335.00,97.04
2334.00,97.05
2333.00,97.04
2332.00,97.05
2331.00,97.05
2330.00,97.06
2329.00,97.04
2328.00,97.01
2327.00,96.95
2326.00,96.88
2325.00,96.81
2324.00,96.76
2323.00,96.75
2322.00,96.77
2321.00,96.79
2320.00,96.80
2319.00,96.82
2318.00,96.83
2317.00,96.85
2316.00,96.86
2315.00,96.88
2314.00,96.89
2313.00,96.89
2312.00,96.89
2311.00,96.89
2310.00,96.89
2309.00,96.89
2308.00,96.89
2307.00,96.89
2306.00,96.89
2305.00,96.88
2304.00,96.88
2303.00,96.89
2302.00,96.89
2301.00,96.88
2300.00,96.87
2299.00,96.86
2298.00,96.86
2297.00,96.85
2296.00,96.85
2295.00,96.84
2294.00,96.83
2293.00,96.82
2292.00,96.80
2291.00,96.79
2290.00,96.77
2289.00,96.75
2288.00,96.73
2287.00,96.72
2286.00,96.71
2285.00,96.71
2284.00,96.71
2283.00,96.73
2282.00,96.74
2281.00,96.75
2280.00,96.76
2279.00,96.76
2278.00,96.77
2277.00,96.78
2276.00,96.78
2275.00,96.78
2274.00,96.78
2273.00,96.78
2272.00,96.79
2271.00,96.80
2270.00,96.81
2269.00,96.82
2268.00,96.82
2267.00,96.83
2266.00,96.83
2265.00,96.83
2264.00,96.83
2263.00,96.83
2262.00,96.83
2261.00,96.83
2260.00,96.81
2259.00,96.80
2258.00,96.80
2257.00,96.80
2256.00,96.80
2255.00,96.81
2254.00,96.83
2253.00,96.84
2252.00,96.84
2251.00,96.84
2250.00,96.84
2249.00,96.84
2248.00,96.84
2247.00,96.83
2246.00,96.82
2245.00,96.82
2244.00,96.82
2243.00,96.83
2242.00,96.84
2241.00,96.84
2240.00,96.84
2239.00,96.83
2238.00,96.83
2237.00,96.82
2236.00,96.81
2235.00,96.80
2234.00,96.80
2233.00,96.79
2232.00,96.79
2231.00,96.80
2230.00,96.81
2229.00,96.82
2228.00,96.82
2227.00,96.82
2226.00,96.82
2225.00,96.81
2224.00,96.80
2223.00,96.80
2222.00,96.80
2221.00,96.81
2220.00,96.81
2219.00,96.81
2218.00,96.81
2217.00,96.81
2216.00,96.80
2215.00,96.80
2214.00,96.80
2213.00,96.81
2212.00,96.81
2211.00,96.80
2210.00,96.79
2209.00,96.78
2208.00,96.78
2207.00,96.79
2206.00,96.79
2205.00,96.79
2204.00,96.79
2203.00,96.79
2202.00,96.78
2201.00,96.77
2200.00,96.77
2199.00,96.77
2198.00,96.77
2197.00,96.75
2196.00,96.73
2195.00,96.71
2194.00,96.71
2193.00,96.71
2192.00,96.71
2191.00,96.71
2190.00,96.70
2189.00,96.68
2188.00,96.67
2187.00,96.67
2186.00,96.67
2185.00,96.68
2184.00,96.68
2183.00,96.70
2182.00,96.73
2181.00,96.75
2180.00,96.76
2179.00,96.74
2178.00,96.71
2177.00,96.69
2176.00,96.69
2175.00,96.71
2174.00,96.73
2173.00,96.72
2172.00,96.69
2171.00,96.66
2170.00,96.62
2169.00,96.57
2168.00,96.52
2167.00,96.48
2166.00,96.46
2165.00,96.44
2164.00,96.41
2163.00,96.37
2162.00,96.35
2161.00,96.38
2160.00,96.52
2159.00,96.76
2158.00,97.01
2157.00,97.18
2156.00,97.23
2155.00,97.22
2154.00,97.17
2153.00,97.11
2152.00,97.08
2151.00,97.06
2150.00,97.06
2149.00,97.07
2148.00,97.07
2147.00,97.09
2146.00,97.09
2145.00,97.09
2144.00,97.08
2143.00,97.08
2142.00,97.08
2141.00,97.09
2140.00,97.08
2139.00,97.08
2138.00,97.08
2137.00,97.10
2136.00,97.13
2135.00,97.19
2134.00,97.24
2133.00,97.27
2132.00,97.26
2131.00,97.24
2130.00,97.21
2129.00,97.18
2128.00,97.16
2127.00,97.14
2126.00,97.12
2125.00,97.10
2124.00,97.08
2123.00,97.06
2122.00,97.05
2121.00,97.03
2120.00,97.01
2119.00,97.00
2118.00,96.99
2117.00,96.98
2116.00,96.95
2115.00,96.92
2114.00,96.90
2113.00,96.90
2112.00,96.90
2111.00,96.90
2110.00,96.90
2109.00,96.90
2108.00,96.89
2107.00,96.90
2106.00,96.90
2105.00,96.91
2104.00,96.91
2103.00,96.90
2102.00,96.90
2101.00,96.90
2100.00,96.89
2099.00,96.90
2098.00,96.91
2097.00,96.93
2096.00,96.95
2095.00,96.98
2094.00,97.00
2093.00,97.01
2092.00,97.00
2091.00,96.98
2090.00,96.96
2089.00,96.94
2088.00,96.92
2087.00,96.91
2086.00,96.90
2085.00,96.89
2084.00,96.88
2083.00,96.87
2082.00,96.86
2081.00,96.85
2080.00,96.85
2079.00,96.85
2078.00,96.85
2077.00,96.86
2076.00,96.86
2075.00,96.86
2074.00,96.86
2073.00,96.85
2072.00,96.84
2071.00,96.84
2070.00,96.84
2069.00,96.84
2068.00,96.85
2067.00,96.86
2066.00,96.87
2065.00,96.87
2064.00,96.86
2063.00,96.86
2062.00,96.86
2061.00,96.85
2060.00,96.85
2059.00,96.84
2058.00,96.83
2057.00,96.81
2056.00,96.80
2055.00,96.80
2054.00,96.79
2053.00,96.75
2052.00,96.67
2051.00,96.60
2050.00,96.58
2049.00,96.60
2048.00,96.65
2047.00,96.69
2046.00,96.71
2045.00,96.71
2044.00,96.70
2043.00,96.68
2042.00,96.68
2041.00,96.67
2040.00,96.66
2039.00,96.64
2038.00,96.63
2037.00,96.62
2036.00,96.62
2035.00,96.65
2034.00,96.69
2033.00,96.72
2032.00,96.75
2031.00,96.77
2030.00,96.77
2029.00,96.77
2028.00,96.75
2027.00,96.74
2026.00,96.74
2025.00,96.74
2024.00,96.75
2023.00,96.78
2022.00,96.80
2021.00,96.81
2020.00,96.82
2019.00,96.82
2018.00,96.82
2017.00,96.81
2016.00,96.80
2015.00,96.80
2014.00,96.80
2013.00,96.80
2012.00,96.79
2011.00,96.78
2010.00,96.77
2009.00,96.76
2008.00,96.77
2007.00,96.82
2006.00,96.87
2005.00,96.92
2004.00,96.94
2003.00,96.94
2002.00,96.93
2001.00,96.91
2000.00,96.89
1999.00,96.86
1998.00,96.84
1997.00,96.81
1996.00,96.78
1995.00,96.76
1994.00,96.76
1993.00,96.76
1992.00,96.75
1991.00,96.74
1990.00,96.72
1989.00,96.70
1988.00,96.68
1987.00,96.66
1986.00,96.65
1985.00,96.63
1984.00,96.61
1983.00,96.58
1982.00,96.53
1981.00,96.46
1980.00,96.42
1979.00,96.45
1978.00,96.57
1977.00,96.70
1976.00,96.80
1975.00,96.84
1974.00,96.85
1973.00,96.84
1972.00,96.84
1971.00,96.83
1970.00,96.83
1969.00,96.82
1968.00,96.82
1967.00,96.83
1966.00,96.85
1965.00,96.86
1964.00,96.87
1963.00,96.87
1962.00,96.87
1961.00,96.88
1960.00,96.90
1959.00,96.93
1958.00,96.96
1957.00,96.97
1956.00,96.96
1955.00,96.94
1954.00,96.93
1953.00,96.93
1952.00,96.92
1951.00,96.92
1950.00,96.92
1949.00,96.91
1948.00,96.91
1947.00,96.91
1946.00,96.92
1945.00,96.93
1944.00,96.94
1943.00,96.96
1942.00,96.96
1941.00,96.95
1940.00,96.94
1939.00,96.94
1938.00,96.95
1937.00,96.95
1936.00,96.95
1935.00,96.95
1934.00,96.96
1933.00,96.96
1932.00,96.95
1931.00,96.95
1930.00,96.95
1929.00,96.95
1928.00,96.95
1927.00,96.96
1926.00,96.96
1925.00,96.96
1924.00,96.96
1923.00,96.95
1922.00,96.95
1921.00,96.95
1920.00,96.95
1919.00,96.95
1918.00,96.96
1917.00,96.96
1916.00,96.95
1915.00,96.94
1914.00,96.94
1913.00,96.94
1912.00,96.94
1911.00,96.94
1910.00,96.94
1909.00,96.93
1908.00,96.93
1907.00,96.94
1906.00,96.95
1905.00,96.96
1904.00,96.95
1903.00,96.95
1902.00,96.95
1901.00,96.95
1900.00,96.95
1899.00,96.95
1898.00,96.95
1897.00,96.95
1896.00,96.95
1895.00,96.96
1894.00,96.96
1893.00,96.97
1892.00,96.97
1891.00,96.97
1890.00,96.98
1889.00,96.99
1888.00,96.99
1887.00,96.99
1886.00,96.99
1885.00,96.99
1884.00,96.99
1883.00,96.99
1882.00,96.99
1881.00,96.98
1880.00,96.98
1879.00,96.98
1878.00,96.98
1877.00,96.99
1876.00,96.99
1875.00,97.00
1874.00,97.01
1873.00,97.00
1872.00,97.00
1871.00,96.99
1870.00,96.99
1869.00,97.00
1868.00,97.00
1867.00,97.01
1866.00,97.01
1865.00,97.02
1864.00,97.02
1863.00,97.01
1862.00,97.01
1861.00,97.01
1860.00,97.00
1859.00,97.00
1858.00,97.00
1857.00,97.00
1856.00,97.00
1855.00,97.01
1854.00,97.02
1853.00,97.03
1852.00,97.03
1851.00,97.03
1850.00,97.03
1849.00,97.02
1848.00,97.02
1847.00,97.01
1846.00,97.01
1845.00,97.02
1844.00,97.03
1843.00,97.03
1842.00,97.03
1841.00,97.03
1840.00,97.03
1839.00,97.03
1838.00,97.03
1837.00,97.03
1836.00,97.03
1835.00,97.03
1834.00,97.04
1833.00,97.03
1832.00,97.03
1831.00,97.03
1830.00,97.03
1829.00,97.03
1828.00,97.03
1827.00,97.03
1826.00,97.03
1825.00,97.02
1824.00,97.02
1823.00,97.02
1822.00,97.02
1821.00,97.03
1820.00,97.04
1819.00,97.06
1818.00,97.08
1817.00,97.10
1816.00,97.10
1815.00,97.09
1814.00,97.08
1813.00,97.07
1812.00,97.05
1811.00,97.05
1810.00,97.06
1809.00,97.06
1808.00,97.06
1807.00,97.06
1806.00,97.06
1805.00,97.06
1804.00,97.05
1803.00,97.05
1802.00,97.04
1801.00,97.03
1800.00,97.02
1799.00,97.02
1798.00,97.01
1797.00,97.01
1796.00,97.00
1795.00,97.00
1794.00,97.00
1793.00,97.00
1792.00,96.99
1791.00,96.99
1790.00,96.98
1789.00,96.97
1788.00,96.96
1787.00,96.95
1786.00,96.94
1785.00,96.92
1784.00,96.91
1783.00,96.89
1782.00,96.88
1781.00,96.86
1780.00,96.85
1779.00,96.84
1778.00,96.83
1777.00,96.82
1776.00,96.80
1775.00,96.79
1774.00,96.77
1773.00,96.75
1772.00,96.74
1771.00,96.72
1770.00,96.71
1769.00,96.69
1768.00,96.66
1767.00,96.64
1766.00,96.62
1765.00,96.60
1764.00,96.58
1763.00,96.56
1762.00,96.54
1761.00,96.52
1760.00,96.50
1759.00,96.49
1758.00,96.48
1757.00,96.48
1756.00,96.47
1755.00,96.47
1754.00,96.47
1753.00,96.47
1752.00,96.47
1751.00,96.47
1750.00,96.47
1749.00,96.47
1748.00,96.47
1747.00,96.47
1746.00,96.47
1745.00,96.47
1744.00,96.47
1743.00,96.47
1742.00,96.46
1741.00,96.45
1740.00,96.44
1739.00,96.43
1738.00,96.42
1737.00,96.42
1736.00,96.41
1735.00,96.42
1734.00,96.42
1733.00,96.41
1732.00,96.41
1731.00,96.40
1730.00,96.40
1729.00,96.40
1728.00,96.39
1727.00,96.39
1726.00,96.38
1725.00,96.37
1724.00,96.35
1723.00,96.34
1722.00,96.33
1721.00,96.32
1720.00,96.31
1719.00,96.30
1718.00,96.29
1717.00,96.27
1716.00,96.26
1715.00,96.25
1714.00,96.25
1713.00,96.25
1712.00,96.25
1711.00,96.26
1710.00,96.27
1709.00,96.27
1708.00,96.27
1707.00,96.28
1706.00,96.29
1705.00,96.31
1704.00,96.32
1703.00,96.33
1702.00,96.35
1701.00,96.37
1700.00,96.38
1699.00,96.38
1698.00,96.38
1697.00,96.38
1696.00,96.39
1695.00,96.39
1694.00,96.39
1693.00,96.38
1692.00,96.38
1691.00,96.37
1690.00,96.36
1689.00,96.35
1688.00,96.34
1687.00,96.33
1686.00,96.33
1685.00,96.32
1684.00,96.29
1683.00,96.26
1682.00,96.24
1681.00,96.22
1680.00,96.20
1679.00,96.19
1678.00,96.18
1677.00,96.16
1676.00,96.14
1675.00,96.12
1674.00,96.10
1673.00,96.08
1672.00,96.07
1671.00,96.05
1670.00,96.04
1669.00,96.02
1668.00,96.00
1667.00,95.99
1666.00,95.98
1665.00,95.97
1664.00,95.96
1663.00,95.95
1662.00,95.95
1661.00,95.94
1660.00,95.93
1659.00,95.92
1658.00,95.92
1657.00,95.92
1656.00,95.91
1655.00,95.91
1654.00,95.92
1653.00,95.92
1652.00,95.92
1651.00,95.92
1650.00,95.91
1649.00,95.91
1648.00,95.91
1647.00,95.92
1646.00,95.93
1645.00,95.93
1644.00,95.94
1643.00,95.95
1642.00,95.96
1641.00,95.97
1640.00,95.97
1639.00,95.98
1638.00,95.99
1637.00,96.00
1636.00,96.03
1635.00,96.05
1634.00,96.07
1633.00,96.08
1632.00,96.09
1631.00,96.10
1630.00,96.12
1629.00,96.14
1628.00,96.16
1627.00,96.18
1626.00,96.20
1625.00,96.22
1624.00,96.23
1623.00,96.25
1622.00,96.27
1621.00,96.28
1620.00,96.29
1619.00,96.30
1618.00,96.32
1617.00,96.34
1616.00,96.35
1615.00,96.36
1614.00,96.37
1613.00,96.38
1612.00,96.39
1611.00,96.40
1610.00,96.41
1609.00,96.42
1608.00,96.42
1607.00,96.43
1606.00,96.44
1605.00,96.45
1604.00,96.45
1603.00,96.45
1602.00,96.45
1601.00,96.46
1600.00,96.46
1599.00,96.46
1598.00,96.47
1597.00,96.47
1596.00,96.47
1595.00,96.47
1594.00,96.47
1593.00,96.47
1592.00,96.47
1591.00,96.47
1590.00,96.47
1589.00,96.47
1588.00,96.47
1587.00,96.46
1586.00,96.46
1585.00,96.46
1584.00,96.45
1583.00,96.45
1582.00,96.44
1581.00,96.44
1580.00,96.43
1579.00,96.43
1578.00,96.42
1577.00,96.41
1576.00,96.40
1575.00,96.40
1574.00,96.39
1573.00,96.38
1572.00,96.37
1571.00,96.37
1570.00,96.36
1569.00,96.35
1568.00,96.34
1567.00,96.34
1566.00,96.34
1565.00,96.33
1564.00,96.33
1563.00,96.33
1562.00,96.33
1561.00,96.33
1560.00,96.32
1559.00,96.32
1558.00,96.31
1557.00,96.30
1556.00,96.29
1555.00,96.30
1554.00,96.31
1553.00,96.31
1552.00,96.30
1551.00,96.30
1550.00,96.30
1549.00,96.30
1548.00,96.29
1547.00,96.29
1546.00,96.29
1545.00,96.29
1544.00,96.27
1543.00,96.27
1542.00,96.26
1541.00,96.25
1540.00,96.24
1539.00,96.24
1538.00,96.24
1537.00,96.22
1536.00,96.21
1535.00,96.20
1534.00,96.20
1533.00,96.18
1532.00,96.17
1531.00,96.16
1530.00,96.15
1529.00,96.14
1528.00,96.12
1527.00,96.10
1526.00,96.09
1525.00,96.07
1524.00,96.05
1523.00,96.03
1522.00,96.03
1521.00,96.00
1520.00,95.96
1519.00,95.94
1518.00,95.91
1517.00,95.88
1516.00,95.84
1515.00,95.81
1514.00,95.79
1513.00,95.76
1512.00,95.72
1511.00,95.69
1510.00,95.66
1509.00,95.61
1508.00,95.54
1507.00,95.46
1506.00,95.39
1505.00,95.33
1504.00,95.28
1503.00,95.24
1502.00,95.19
1501.00,95.12
1500.00,95.04
1499.00,94.96
1498.00,94.88
1497.00,94.76
1496.00,94.63
1495.00,94.53
1494.00,94.44
1493.00,94.34
1492.00,94.22
1491.00,94.09
1490.00,93.93
1489.00,93.75
1488.00,93.57
1487.00,93.41
1486.00,93.26
1485.00,93.09
1484.00,92.91
1483.00,92.73
1482.00,92.53
1481.00,92.31
1480.00,92.09
1479.00,91.88
1478.00,91.66
1477.00,91.39
1476.00,91.08
1475.00,90.75
1474.00,90.33
1473.00,89.74
1472.00,89.05
1471.00,88.41
1470.00,87.85
1469.00,87.30
1468.00,86.77
1467.00,86.25
1466.00,85.74
1465.00,85.24
1464.00,84.81
1463.00,84.50
1462.00,84.25
1461.00,84.02
1460.00,83.80
1459.00,83.58
1458.00,83.34
1457.00,83.11
1456.00,82.99
1455.00,82.99
1454.00,83.04
1453.00,83.10
1452.00,83.17
1451.00,83.24
1450.00,83.28
1449.00,83.29
1448.00,83.28
1447.00,83.27
1446.00,83.25
1445.00,83.22
1444.00,83.18
1443.00,83.13
1442.00,83.08
1441.00,83.01
1440.00,82.95
1439.00,82.91
1438.00,82.86
1437.00,82.76
1436.00,82.68
1435.00,82.64
1434.00,82.63
1433.00,82.63
1432.00,82.65
1431.00,82.67
1430.00,82.70
1429.00,82.72
1428.00,82.75
1427.00,82.80
1426.00,82.85
1425.00,82.89
1424.00,82.93
1423.00,82.98
1422.00,83.03
1421.00,83.07
1420.00,83.11
1419.00,83.15
1418.00,83.20
1417.00,83.25
1416.00,83.32
1415.00,83.40
1414.00,83.49
1413.00,83.59
1412.00,83.70
1411.00,83.82
1410.00,83.96
1409.00,84.09
1408.00,84.24
1407.00,84.41
1406.00,84.60
1405.00,84.80
1404.00,85.01
1403.00,85.24
1402.00,85.47
1401.00,85.72
1400.00,86.00
1399.00,86.30
1398.00,86.60
1397.00,86.89
1396.00,87.19
1395.00,87.52
1394.00,87.83
1393.00,88.10
1392.00,88.34
1391.00,88.56
1390.00,88.74
1389.00,88.89
1388.00,88.99
1387.00,89.04
1386.00,89.03
1385.00,88.98
1384.00,88.89
1383.00,88.76
1382.00,88.60
1381.00,88.42
1380.00,88.22
1379.00,88.03
1378.00,87.84
1377.00,87.67
1376.00,87.52
1375.00,87.38
1374.00,87.25
1373.00,87.16
1372.00,87.10
1371.00,87.06
1370.00,87.04
1369.00,87.02
1368.00,87.00
1367.00,87.00
1366.00,87.00
1365.00,86.99
1364.00,86.98
1363.00,86.94
1362.00,86.88
1361.00,86.81
1360.00,86.74
1359.00,86.66
1358.00,86.56
1357.00,86.45
1356.00,86.33
1355.00,86.19
1354.00,86.04
1353.00,85.88
1352.00,85.72
1351.00,85.55
1350.00,85.37
1349.00,85.19
1348.00,85.01
1347.00,84.83
1346.00,84.65
1345.00,84.47
1344.00,84.30
1343.00,84.14
1342.00,83.98
1341.00,83.81
1340.00,83.64
1339.00,83.47
1338.00,83.33
1337.00,83.20
1336.00,83.10
1335.00,83.01
1334.00,82.93
1333.00,82.86
1332.00,82.80
1331.00,82.75
1330.00,82.71
1329.00,82.68
1328.00,82.66
1327.00,82.65
1326.00,82.66
1325.00,82.67
1324.00,82.71
1323.00,82.75
1322.00,82.81
1321.00,82.87
1320.00,82.95
1319.00,83.03
1318.00,83.13
1317.00,83.23
1316.00,83.34
1315.00,83.45
1314.00,83.56
1313.00,83.68
1312.00,83.80
1311.00,83.92
1310.00,84.03
1309.00,84.15
1308.00,84.26
1307.00,84.37
1306.00,84.48
1305.00,84.58
1304.00,84.68
1303.00,84.79
1302.00,84.89
1301.00,85.00
1300.00,85.10
1299.00,85.21
1298.00,85.32
1297.00,85.43
1296.00,85.54
1295.00,85.66
1294.00,85.78
1293.00,85.90
1292.00,86.01
1291.00,86.13
1290.00,86.25
1289.00,86.36
1288.00,86.47
1287.00,86.57
1286.00,86.66
1285.00,86.75
1284.00,86.84
1283.00,86.92
1282.00,87.01
1281.00,87.09
1280.00,87.16
1279.00,87.24
1278.00,87.30
1277.00,87.37
1276.00,87.43
1275.00,87.49
1274.00,87.56
1273.00,87.62
1272.00,87.69
1271.00,87.75
1270.00,87.82
1269.00,87.88
1268.00,87.94
1267.00,88.01
1266.00,88.09
1265.00,88.16
1264.00,88.24
1263.00,88.33
1262.00,88.43
1261.00,88.53
1260.00,88.65
1259.00,88.76
1258.00,88.88
1257.00,88.99
1256.00,89.12
1255.00,89.24
1254.00,89.35
1253.00,89.47
1252.00,89.59
1251.00,89.70
1250.00,89.80
1249.00,89.89
1248.00,89.98
1247.00,90.06
1246.00,90.13
1245.00,90.20
1244.00,90.25
1243.00,90.29
1242.00,90.31
1241.00,90.33
1240.00,90.35
1239.00,90.36
1238.00,90.36
1237.00,90.36
1236.00,90.35
1235.00,90.34
1234.00,90.33
1233.00,90.31
1232.00,90.30
1231.00,90.29
1230.00,90.27
1229.00,90.25
1228.00,90.23
1227.00,90.21
1226.00,90.20
1225.00,90.20
1224.00,90.20
1223.00,90.21
1222.00,90.22
1221.00,90.23
1220.00,90.25
1219.00,90.26
1218.00,90.27
1217.00,90.28
1216.00,90.30
1215.00,90.31
1214.00,90.32
1213.00,90.34
1212.00,90.35
1211.00,90.37
1210.00,90.39
1209.00,90.41
1208.00,90.43
1207.00,90.45
1206.00,90.47
1205.00,90.49
1204.00,90.51
1203.00,90.53
1202.00,90.54
1201.00,90.56
1200.00,90.58
1199.00,90.60
1198.00,90.61
1197.00,90.62
1196.00,90.63
1195.00,90.64
1194.00,90.65
1193.00,90.66
1192.00,90.67
1191.00,90.68
1190.00,90.69
1189.00,90.71
1188.00,90.72
1187.00,90.74
1186.00,90.76
1185.00,90.78
1184.00,90.81
1183.00,90.83
1182.00,90.86
1181.00,90.89
1180.00,90.92
1179.00,90.95
1178.00,90.97
1177.00,90.98
1176.00,91.01
1175.00,91.04
1174.00,91.06
1173.00,91.08
1172.00,91.10
1171.00,91.11
1170.00,91.12
1169.00,91.12
1168.00,91.13
1167.00,91.12
1166.00,91.10
1165.00,91.08
1164.00,91.05
1163.00,91.01
1162.00,90.96
1161.00,90.90
1160.00,90.81
1159.00,90.69
1158.00,90.54
1157.00,90.34
1156.00,90.11
1155.00,89.82
1154.00,89.48
1153.00,89.07
1152.00,88.60
1151.00,88.07
1150.00,87.48
1149.00,86.84
1148.00,86.15
1147.00,85.43
1146.00,84.69
1145.00,83.96
1144.00,83.26
1143.00,82.59
1142.00,81.99
1141.00,81.47
1140.00,81.04
1139.00,80.70
1138.00,80.46
1137.00,80.28
1136.00,80.15
1135.00,80.06
1134.00,80.00
1133.00,79.94
1132.00,79.87
1131.00,79.79
1130.00,79.70
1129.00,79.58
1128.00,79.45
1127.00,79.31
1126.00,79.16
1125.00,79.00
1124.00,78.82
1123.00,78.64
1122.00,78.46
1121.00,78.28
1120.00,78.10
1119.00,77.94
1118.00,77.79
1117.00,77.66
1116.00,77.53
1115.00,77.43
1114.00,77.35
1113.00,77.27
1112.00,77.20
1111.00,77.13
1110.00,77.07
1109.00,77.01
1108.00,76.95
1107.00,76.87
1106.00,76.80
1105.00,76.71
1104.00,76.61
1103.00,76.50
1102.00,76.38
1101.00,76.23
1100.00,76.07
1099.00,75.90
1098.00,75.74
1097.00,75.56
1096.00,75.39
1095.00,75.21
1094.00,75.05
1093.00,74.89
1092.00,74.74
1091.00,74.61
1090.00,74.51
1089.00,74.41
1088.00,74.32
1087.00,74.26
1086.00,74.21
1085.00,74.17
1084.00,74.13
1083.00,74.11
1082.00,74.09
1081.00,74.09
1080.00,74.10
1079.00,74.12
1078.00,74.16
1077.00,74.19
1076.00,74.23
1075.00,74.27
1074.00,74.33
1073.00,74.40
1072.00,74.47
1071.00,74.55
1070.00,74.64
1069.00,74.74
1068.00,74.84
1067.00,74.95
1066.00,75.08
1065.00,75.21
1064.00,75.35
1063.00,75.49
1062.00,75.65
1061.00,75.80
1060.00,75.94
1059.00,76.09
1058.00,76.23
1057.00,76.36
1056.00,76.48
1055.00,76.59
1054.00,76.69
1053.00,76.77
1052.00,76.83
1051.00,76.90
1050.00,76.97
1049.00,77.02
1048.00,77.06
1047.00,77.10
1046.00,77.13
1045.00,77.16
1044.00,77.20
1043.00,77.24
1042.00,77.28
1041.00,77.32
1040.00,77.36
1039.00,77.40
1038.00,77.45
1037.00,77.50
1036.00,77.54
1035.00,77.59
1034.00,77.64
1033.00,77.69
1032.00,77.73
1031.00,77.76
1030.00,77.79
1029.00,77.82
1028.00,77.85
1027.00,77.87
1026.00,77.90
1025.00,77.93
1024.00,77.94
1023.00,77.96
1022.00,77.98
1021.00,77.99
1020.00,78.01
1019.00,78.04
1018.00,78.09
1017.00,78.14
1016.00,78.19
1015.00,78.26
1014.00,78.33
1013.00,78.41
1012.00,78.51
1011.00,78.61
1010.00,78.72
1009.00,78.84
1008.00,78.96
1007.00,79.09
1006.00,79.23
1005.00,79.36
1004.00,79.50
1003.00,79.63
1002.00,79.77
1001.00,79.91
1000.00,80.03
999.00,80.15
998.00,80.28
997.00,80.40
996.00,80.51
995.00,80.62
994.00,80.74
993.00,80.84
992.00,80.95
991.00,81.06
990.00,81.17
989.00,81.28
988.00,81.39
987.00,81.51
986.00,81.63
985.00,81.75
984.00,81.87
983.00,81.99
982.00,82.12
981.00,82.24
980.00,82.37
979.00,82.51
978.00,82.65
977.00,82.79
976.00,82.93
975.00,83.07
974.00,83.20
973.00,83.34
972.00,83.47
971.00,83.60
970.00,83.73
969.00,83.86
968.00,83.98
967.00,84.11
966.00,84.23
965.00,84.36
964.00,84.48
963.00,84.60
962.00,84.72
961.00,84.84
960.00,84.94
959.00,85.05
958.00,85.15
957.00,85.25
956.00,85.35
955.00,85.44
954.00,85.54
953.00,85.62
952.00,85.71
951.00,85.79
950.00,85.86
949.00,85.93
948.00,85.99
947.00,86.04
946.00,86.09
945.00,86.14
944.00,86.18
943.00,86.22
942.00,86.25
941.00,86.27
940.00,86.29
939.00,86.31
938.00,86.33
937.00,86.34
936.00,86.35
935.00,86.35
934.00,86.35
933.00,86.34
932.00,86.33
931.00,86.32
930.00,86.31
929.00,86.29
928.00,86.27
927.00,86.25
926.00,86.24
925.00,86.22
924.00,86.19
923.00,86.16
922.00,86.12
921.00,86.07
920.00,86.04
919.00,86.00
918.00,85.97
917.00,85.94
916.00,85.90
915.00,85.85
914.00,85.81
913.00,85.77
912.00,85.74
911.00,85.71
910.00,85.68
909.00,85.65
908.00,85.62
907.00,85.60
906.00,85.57
905.00,85.54
904.00,85.51
903.00,85.49
902.00,85.46
901.00,85.42
900.00,85.38
899.00,85.35
898.00,85.33
897.00,85.32
896.00,85.31
895.00,85.31
894.00,85.31
893.00,85.30
892.00,85.30
891.00,85.31
890.00,85.33
889.00,85.37
888.00,85.41
887.00,85.44
886.00,85.49
885.00,85.54
884.00,85.61
883.00,85.68
882.00,85.76
881.00,85.83
880.00,85.90
879.00,85.97
878.00,86.03
877.00,86.09
876.00,86.13
875.00,86.17
874.00,86.20
873.00,86.22
872.00,86.22
871.00,86.21
870.00,86.16
869.00,86.08
868.00,85.95
867.00,85.77
866.00,85.54
865.00,85.27
864.00,84.95
863.00,84.60
862.00,84.22
861.00,83.81
860.00,83.39
859.00,82.94
858.00,82.49
857.00,82.03
856.00,81.56
855.00,81.10
854.00,80.65
853.00,80.22
852.00,79.81
851.00,79.44
850.00,79.12
849.00,78.84
848.00,78.61
847.00,78.43
846.00,78.31
845.00,78.23
844.00,78.18
843.00,78.17
842.00,78.17
841.00,78.16
840.00,78.15
839.00,78.12
838.00,78.09
837.00,78.04
836.00,77.97
835.00,77.89
834.00,77.82
833.00,77.75
832.00,77.69
831.00,77.66
830.00,77.64
829.00,77.64
828.00,77.65
827.00,77.69
826.00,77.77
825.00,77.88
824.00,78.03
823.00,78.22
822.00,78.45
821.00,78.72
820.00,78.99
819.00,79.28
818.00,79.57
817.00,79.87
816.00,80.16
815.00,80.46
814.00,80.77
813.00,81.09
812.00,81.41
811.00,81.73
810.00,82.05
809.00,82.37
808.00,82.68
807.00,82.98
806.00,83.25
805.00,83.50
804.00,83.73
803.00,83.95
802.00,84.15
801.00,84.33
800.00,84.48
799.00,84.62
798.00,84.73
797.00,84.82
796.00,84.89
795.00,84.95
794.00,84.99
793.00,85.02
792.00,85.03
791.00,85.03
790.00,85.03
789.00,85.01
788.00,84.99
787.00,84.97
786.00,84.94
785.00,84.91
784.00,84.88
783.00,84.83
782.00,84.79
781.00,84.73
780.00,84.67
779.00,84.60
778.00,84.53
777.00,84.47
776.00,84.40
775.00,84.35
774.00,84.29
773.00,84.23
772.00,84.15
771.00,84.08
770.00,84.01
769.00,83.94
768.00,83.86
767.00,83.78
766.00,83.69
765.00,83.60
764.00,83.51
763.00,83.43
762.00,83.35
761.00,83.27
760.00,83.19
759.00,83.11
758.00,83.03
757.00,82.95
756.00,82.86
755.00,82.76
754.00,82.65
753.00,82.54
752.00,82.42
751.00,82.31
750.00,82.20
749.00,82.08
748.00,81.95
747.00,81.82
746.00,81.71
745.00,81.60
744.00,81.49
743.00,81.37
742.00,81.25
741.00,81.13
740.00,81.01
739.00,80.89
738.00,80.78
737.00,80.67
736.00,80.55
735.00,80.43
734.00,80.31
733.00,80.17
732.00,80.01
731.00,79.84
730.00,79.67
729.00,79.47
728.00,79.27
727.00,79.09
726.00,78.93
725.00,78.81
724.00,78.71
723.00,78.65
722.00,78.63
721.00,78.64
720.00,78.66
719.00,78.70
718.00,78.75
717.00,78.80
716.00,78.84
715.00,78.87
714.00,78.90
713.00,78.90
712.00,78.90
711.00,78.88
710.00,78.85
709.00,78.81
708.00,78.75
707.00,78.69
706.00,78.64
705.00,78.59
704.00,78.53
703.00,78.48
702.00,78.43
701.00,78.37
700.00,78.30
699.00,78.21
698.00,78.13
697.00,78.05
696.00,77.97
695.00,77.90
694.00,77.83
693.00,77.75
692.00,77.68
691.00,77.62
690.00,77.56
689.00,77.49
688.00,77.41
687.00,77.33
686.00,77.26
685.00,77.20
684.00,77.12
683.00,77.05
682.00,76.99
681.00,76.91
680.00,76.83
679.00,76.75
678.00,76.67
677.00,76.60
676.00,76.52
675.00,76.44
674.00,76.35
673.00,76.27
672.00,76.20
671.00,76.16
670.00,76.14
669.00,76.02
668.00,75.77
667.00,75.56
666.00,75.51
665.00,75.50
664.00,75.48
663.00,75.44
662.00,75.38
661.00,75.32
660.00,75.24
659.00,75.16
658.00,75.11
657.00,75.06
656.00,74.99
655.00,74.92
654.00,74.86
653.00,74.79
652.00,74.72
651.00,74.65
650.00,74.59
