Created as New Dataset,PBT (polybutylene) GF
cm-1,%T
4000.00,98.37
3999.00,98.38
3998.00,98.38
3997.00,98.38
3996.00,98.38
3995.00,98.38
3994.00,98.38
3993.00,98.38
3992.00,98.39
3991.00,98.39
3990.00,98.39
3989.00,98.39
3988.00,98.39
3987.00,98.39
3986.00,98.39
3985.00,98.39
3984.00,98.39
3983.00,98.39
3982.00,98.39
3981.00,98.39
3980.00,98.39
3979.00,98.39
3978.00,98.39
3977.00,98.39
3976.00,98.39
3975.00,98.39
3974.00,98.38
3973.00,98.38
3972.00,98.38
3971.00,98.38
3970.00,98.39
3969.00,98.39
3968.00,98.39
3967.00,98.40
3966.00,98.40
3965.00,98.40
3964.00,98.39
3963.00,98.39
3962.00,98.39
3961.00,98.38
3960.00,98.38
3959.00,98.38
3958.00,98.38
3957.00,98.39
3956.00,98.39
3955.00,98.39
3954.00,98.39
3953.00,98.39
3952.00,98.39
3951.00,98.38
3950.00,98.38
3949.00,98.38
3948.00,98.38
3947.00,98.39
3946.00,98.39
3945.00,98.39
3944.00,98.38
3943.00,98.38
3942.00,98.38
3941.00,98.38
3940.00,98.38
3939.00,98.38
3938.00,98.39
3937.00,98.39
3936.00,98.39
3935.00,98.39
3934.00,98.39
3933.00,98.39
3932.00,98.39
3931.00,98.38
3930.00,98.38
3929.00,98.38
3928.00,98.38
3927.00,98.38
3926.00,98.39
3925.00,98.38
3924.00,98.38
3923.00,98.38
3922.00,98.39
3921.00,98.39
3920.00,98.39
3919.00,98.39
3918.00,98.39
3917.00,98.39
3916.00,98.39
3915.00,98.39
3914.00,98.39
3913.00,98.39
3912.00,98.40
3911.00,98.40
3910.00,98.40
3909.00,98.40
3908.00,98.40
3907.00,98.40
3906.00,98.40
3905.00,98.41
3904.00,98.40
3903.00,98.40
3902.00,98.41
3901.00,98.41
3900.00,98.41
3899.00,98.41
3898.00,98.41
3897.00,98.41
3896.00,98.41
3895.00,98.41
3894.00,98.41
3893.00,98.42
3892.00,98.42
3891.00,98.42
3890.00,98.42
3889.00,98.43
3888.00,98.43
3887.00,98.43
3886.00,98.43
3885.00,98.43
3884.00,98.43
3883.00,98.43
3882.00,98.43
3881.00,98.43
3880.00,98.43
3879.00,98.43
3878.00,98.43
3877.00,98.43
3876.00,98.42
3875.00,98.42
3874.00,98.42
3873.00,98.42
3872.00,98.43
3871.00,98.43
3870.00,98.43
3869.00,98.43
3868.00,98.44
3867.00,98.44
3866.00,98.44
3865.00,98.44
3864.00,98.43
3863.00,98.43
3862.00,98.43
3861.00,98.43
3860.00,98.43
3859.00,98.43
3858.00,98.44
3857.00,98.44
3856.00,98.45
3855.00,98.46
3854.00,98.45
3853.00,98.44
3852.00,98.43
3851.00,98.44
3850.00,98.44
3849.00,98.44
3848.00,98.44
3847.00,98.44
3846.00,98.44
3845.00,98.45
3844.00,98.45
3843.00,98.44
3842.00,98.44
3841.00,98.44
3840.00,98.44
3839.00,98.44
3838.00,98.44
3837.00,98.44
3836.00,98.44
3835.00,98.45
3834.00,98.45
3833.00,98.45
3832.00,98.45
3831.00,98.45
3830.00,98.44
3829.00,98.44
3828.00,98.44
3827.00,98.44
3826.00,98.44
3825.00,98.44
3824.00,98.45
3823.00,98.45
3822.00,98.44
3821.00,98.44
3820.00,98.44
3819.00,98.45
3818.00,98.45
3817.00,98.45
3816.00,98.45
3815.00,98.44
3814.00,98.45
3813.00,98.45
3812.00,98.45
3811.00,98.44
3810.00,98.44
3809.00,98.45
3808.00,98.44
3807.00,98.44
3806.00,98.43
3805.00,98.43
3804.00,98.44
3803.00,98.45
3802.00,98.45
3801.00,98.44
3800.00,98.44
3799.00,98.44
3798.00,98.45
3797.00,98.44
3796.00,98.44
3795.00,98.45
3794.00,98.45
3793.00,98.46
3792.00,98.45
3791.00,98.45
3790.00,98.46
3789.00,98.46
3788.00,98.46
3787.00,98.46
3786.00,98.46
3785.00,98.46
3784.00,98.46
3783.00,98.46
3782.00,98.46
3781.00,98.46
3780.00,98.46
3779.00,98.46
3778.00,98.45
3777.00,98.45
3776.00,98.45
3775.00,98.45
3774.00,98.45
3773.00,98.45
3772.00,98.45
3771.00,98.45
3770.00,98.44
3769.00,98.44
3768.00,98.44
3767.00,98.44
3766.00,98.44
3765.00,98.44
3764.00,98.44
3763.00,98.44
3762.00,98.45
3761.00,98.44
3760.00,98.44
3759.00,98.44
3758.00,98.44
3757.00,98.44
3756.00,98.44
3755.00,98.44
3754.00,98.44
3753.00,98.44
3752.00,98.44
3751.00,98.44
3750.00,98.45
3749.00,98.45
3748.00,98.45
3747.00,98.45
3746.00,98.46
3745.00,98.46
3744.00,98.46
3743.00,98.46
3742.00,98.47
3741.00,98.47
3740.00,98.46
3739.00,98.46
3738.00,98.47
3737.00,98.47
3736.00,98.47
3735.00,98.47
3734.00,98.47
3733.00,98.48
3732.00,98.48
3731.00,98.48
3730.00,98.48
3729.00,98.48
3728.00,98.49
3727.00,98.48
3726.00,98.48
3725.00,98.48
3724.00,98.48
3723.00,98.48
3722.00,98.48
3721.00,98.47
3720.00,98.47
3719.00,98.48
3718.00,98.48
3717.00,98.48
3716.00,98.48
3715.00,98.48
3714.00,98.48
3713.00,98.48
3712.00,98.48
3711.00,98.48
3710.00,98.48
3709.00,98.48
3708.00,98.48
3707.00,98.48
3706.00,98.48
3705.00,98.48
3704.00,98.48
3703.00,98.48
3702.00,98.48
3701.00,98.47
3700.00,98.47
3699.00,98.47
3698.00,98.46
3697.00,98.46
3696.00,98.46
3695.00,98.45
3694.00,98.45
3693.00,98.44
3692.00,98.44
3691.00,98.43
3690.00,98.42
3689.00,98.41
3688.00,98.40
3687.00,98.39
3686.00,98.39
3685.00,98.37
3684.00,98.36
3683.00,98.36
3682.00,98.35
3681.00,98.35
3680.00,98.35
3679.00,98.36
3678.00,98.36
3677.00,98.37
3676.00,98.37
3675.00,98.37
3674.00,98.37
3673.00,98.37
3672.00,98.37
3671.00,98.36
3670.00,98.35
3669.00,98.34
3668.00,98.35
3667.00,98.35
3666.00,98.34
3665.00,98.33
3664.00,98.33
3663.00,98.33
3662.00,98.32
3661.00,98.32
3660.00,98.31
3659.00,98.31
3658.00,98.31
3657.00,98.30
3656.00,98.29
3655.00,98.28
3654.00,98.28
3653.00,98.27
3652.00,98.27
3651.00,98.26
3650.00,98.26
3649.00,98.25
3648.00,98.25
3647.00,98.24
3646.00,98.23
3645.00,98.23
3644.00,98.22
3643.00,98.21
3642.00,98.20
3641.00,98.20
3640.00,98.20
3639.00,98.19
3638.00,98.19
3637.00,98.19
3636.00,98.19
3635.00,98.18
3634.00,98.18
3633.00,98.17
3632.00,98.17
3631.00,98.17
3630.00,98.16
3629.00,98.15
3628.00,98.15
3627.00,98.16
3626.00,98.16
3625.00,98.16
3624.00,98.15
3623.00,98.15
3622.00,98.15
3621.00,98.15
3620.00,98.15
3619.00,98.15
3618.00,98.15
3617.00,98.15
3616.00,98.16
3615.00,98.16
3614.00,98.16
3613.00,98.16
3612.00,98.16
3611.00,98.16
3610.00,98.16
3609.00,98.17
3608.00,98.17
3607.00,98.17
3606.00,98.18
3605.00,98.18
3604.00,98.19
3603.00,98.19
3602.00,98.20
3601.00,98.20
3600.00,98.21
3599.00,98.22
3598.00,98.22
3597.00,98.23
3596.00,98.23
3595.00,98.23
3594.00,98.23
3593.00,98.23
3592.00,98.23
3591.00,98.23
3590.00,98.22
3589.00,98.22
3588.00,98.22
3587.00,98.22
3586.00,98.22
3585.00,98.22
3584.00,98.22
3583.00,98.21
3582.00,98.21
3581.00,98.21
3580.00,98.21
3579.00,98.20
3578.00,98.20
3577.00,98.19
3576.00,98.18
3575.00,98.18
3574.00,98.17
3573.00,98.17
3572.00,98.16
3571.00,98.16
3570.00,98.15
3569.00,98.15
3568.00,98.14
3567.00,98.13
3566.00,98.12
3565.00,98.11
3564.00,98.10
3563.00,98.10
3562.00,98.09
3561.00,98.09
3560.00,98.08
3559.00,98.08
3558.00,98.08
3557.00,98.07
3556.00,98.07
3555.00,98.06
3554.00,98.06
3553.00,98.05
3552.00,98.05
3551.00,98.05
3550.00,98.05
3549.00,98.05
3548.00,98.05
3547.00,98.05
3546.00,98.05
3545.00,98.05
3544.00,98.05
3543.00,98.05
3542.00,98.06
3541.00,98.06
3540.00,98.06
3539.00,98.07
3538.00,98.07
3537.00,98.08
3536.00,98.08
3535.00,98.08
3534.00,98.08
3533.00,98.09
3532.00,98.09
3531.00,98.10
3530.00,98.10
3529.00,98.11
3528.00,98.11
3527.00,98.12
3526.00,98.12
3525.00,98.12
3524.00,98.12
3523.00,98.12
3522.00,98.12
3521.00,98.13
3520.00,98.13
3519.00,98.13
3518.00,98.14
3517.00,98.14
3516.00,98.15
3515.00,98.15
3514.00,98.15
3513.00,98.15
3512.00,98.16
3511.00,98.16
3510.00,98.16
3509.00,98.16
3508.00,98.16
3507.00,98.16
3506.00,98.16
3505.00,98.16
3504.00,98.16
3503.00,98.16
3502.00,98.16
3501.00,98.16
3500.00,98.17
3499.00,98.18
3498.00,98.18
3497.00,98.18
3496.00,98.18
3495.00,98.17
3494.00,98.17
3493.00,98.18
3492.00,98.18
3491.00,98.18
3490.00,98.18
3489.00,98.18
3488.00,98.18
3487.00,98.18
3486.00,98.17
3485.00,98.17
3484.00,98.17
3483.00,98.17
3482.00,98.17
3481.00,98.17
3480.00,98.18
3479.00,98.17
3478.00,98.17
3477.00,98.16
3476.00,98.16
3475.00,98.16
3474.00,98.16
3473.00,98.16
3472.00,98.16
3471.00,98.16
3470.00,98.16
3469.00,98.16
3468.00,98.16
3467.00,98.15
3466.00,98.14
3465.00,98.13
3464.00,98.12
3463.00,98.12
3462.00,98.12
3461.00,98.11
3460.00,98.11
3459.00,98.09
3458.00,98.08
3457.00,98.07
3456.00,98.06
3455.00,98.05
3454.00,98.05
3453.00,98.04
3452.00,98.03
3451.00,98.02
3450.00,98.01
3449.00,98.00
3448.00,97.98
3447.00,97.97
3446.00,97.95
3445.00,97.93
3444.00,97.91
3443.00,97.89
3442.00,97.88
3441.00,97.86
3440.00,97.86
3439.00,97.86
3438.00,97.85
3437.00,97.84
3436.00,97.82
3435.00,97.79
3434.00,97.75
3433.00,97.72
3432.00,97.69
3431.00,97.67
3430.00,97.64
3429.00,97.61
3428.00,97.57
3427.00,97.53
3426.00,97.50
3425.00,97.47
3424.00,97.45
3423.00,97.44
3422.00,97.43
3421.00,97.42
3420.00,97.41
3419.00,97.39
3418.00,97.39
3417.00,97.39
3416.00,97.40
3415.00,97.41
3414.00,97.43
3413.00,97.45
3412.00,97.47
3411.00,97.50
3410.00,97.53
3409.00,97.56
3408.00,97.59
3407.00,97.63
3406.00,97.67
3405.00,97.72
3404.00,97.78
3403.00,97.83
3402.00,97.88
3401.00,97.92
3400.00,97.95
3399.00,97.96
3398.00,97.97
3397.00,97.98
3396.00,97.99
3395.00,98.01
3394.00,98.04
3393.00,98.05
3392.00,98.07
3391.00,98.07
3390.00,98.07
3389.00,98.07
3388.00,98.07
3387.00,98.07
3386.00,98.07
3385.00,98.08
3384.00,98.09
3383.00,98.10
3382.00,98.11
3381.00,98.12
3380.00,98.13
3379.00,98.13
3378.00,98.14
3377.00,98.14
3376.00,98.14
3375.00,98.14
3374.00,98.15
3373.00,98.15
3372.00,98.16
3371.00,98.17
3370.00,98.17
3369.00,98.18
3368.00,98.18
3367.00,98.17
3366.00,98.16
3365.00,98.15
3364.00,98.15
3363.00,98.15
3362.00,98.15
3361.00,98.15
3360.00,98.15
3359.00,98.14
3358.00,98.13
3357.00,98.13
3356.00,98.13
3355.00,98.13
3354.00,98.13
3353.00,98.14
3352.00,98.14
3351.00,98.14
3350.00,98.14
3349.00,98.13
3348.00,98.11
3347.00,98.11
3346.00,98.10
3345.00,98.10
3344.00,98.10
3343.00,98.10
3342.00,98.10
3341.00,98.09
3340.00,98.09
3339.00,98.08
3338.00,98.08
3337.00,98.07
3336.00,98.06
3335.00,98.05
3334.00,98.05
3333.00,98.04
3332.00,98.03
3331.00,98.03
3330.00,98.02
3329.00,98.02
3328.00,98.03
3327.00,98.03
3326.00,98.03
3325.00,98.03
3324.00,98.03
3323.00,98.04
3322.00,98.04
3321.00,98.04
3320.00,98.04
3319.00,98.04
3318.00,98.04
3317.00,98.04
3316.00,98.04
3315.00,98.04
3314.00,98.05
3313.00,98.04
3312.00,98.04
3311.00,98.04
3310.00,98.04
3309.00,98.04
3308.00,98.04
3307.00,98.04
3306.00,98.04
3305.00,98.03
3304.00,98.03
3303.00,98.02
3302.00,98.02
3301.00,98.02
3300.00,98.01
3299.00,98.01
3298.00,98.01
3297.00,98.01
3296.00,98.01
3295.00,98.01
3294.00,98.02
3293.00,98.02
3292.00,98.02
3291.00,98.02
3290.00,98.02
3289.00,98.02
3288.00,98.03
3287.00,98.04
3286.00,98.05
3285.00,98.05
3284.00,98.06
3283.00,98.06
3282.00,98.06
3281.00,98.07
3280.00,98.07
3279.00,98.08
3278.00,98.09
3277.00,98.09
3276.00,98.10
3275.00,98.10
3274.00,98.10
3273.00,98.10
3272.00,98.11
3271.00,98.11
3270.00,98.11
3269.00,98.10
3268.00,98.10
3267.00,98.10
3266.00,98.11
3265.00,98.12
3264.00,98.12
3263.00,98.12
3262.00,98.12
3261.00,98.12
3260.00,98.12
3259.00,98.12
3258.00,98.13
3257.00,98.13
3256.00,98.13
3255.00,98.14
3254.00,98.14
3253.00,98.14
3252.00,98.14
3251.00,98.15
3250.00,98.15
3249.00,98.15
3248.00,98.15
3247.00,98.15
3246.00,98.16
3245.00,98.16
3244.00,98.16
3243.00,98.16
3242.00,98.16
3241.00,98.16
3240.00,98.16
3239.00,98.16
3238.00,98.16
3237.00,98.16
3236.00,98.16
3235.00,98.16
3234.00,98.16
3233.00,98.15
3232.00,98.15
3231.00,98.15
3230.00,98.15
3229.00,98.15
3228.00,98.15
3227.00,98.15
3226.00,98.15
3225.00,98.15
3224.00,98.15
3223.00,98.16
3222.00,98.16
3221.00,98.16
3220.00,98.16
3219.00,98.17
3218.00,98.17
3217.00,98.17
3216.00,98.18
3215.00,98.19
3214.00,98.19
3213.00,98.19
3212.00,98.20
3211.00,98.20
3210.00,98.20
3209.00,98.20
3208.00,98.21
3207.00,98.21
3206.00,98.21
3205.00,98.22
3204.00,98.22
3203.00,98.22
3202.00,98.22
3201.00,98.22
3200.00,98.22
3199.00,98.22
3198.00,98.22
3197.00,98.22
3196.00,98.22
3195.00,98.22
3194.00,98.22
3193.00,98.23
3192.00,98.23
3191.00,98.23
3190.00,98.23
3189.00,98.23
3188.00,98.23
3187.00,98.23
3186.00,98.24
3185.00,98.24
3184.00,98.24
3183.00,98.24
3182.00,98.24
3181.00,98.24
3180.00,98.24
3179.00,98.24
3178.00,98.24
3177.00,98.25
3176.00,98.25
3175.00,98.25
3174.00,98.24
3173.00,98.24
3172.00,98.25
3171.00,98.25
3170.00,98.25
3169.00,98.25
3168.00,98.25
3167.00,98.25
3166.00,98.25
3165.00,98.25
3164.00,98.25
3163.00,98.25
3162.00,98.25
3161.00,98.25
3160.00,98.25
3159.00,98.25
3158.00,98.25
3157.00,98.25
3156.00,98.25
3155.00,98.25
3154.00,98.26
3153.00,98.26
3152.00,98.25
3151.00,98.25
3150.00,98.25
3149.00,98.25
3148.00,98.24
3147.00,98.24
3146.00,98.24
3145.00,98.24
3144.00,98.24
3143.00,98.24
3142.00,98.23
3141.00,98.23
3140.00,98.23
3139.00,98.22
3138.00,98.22
3137.00,98.21
3136.00,98.20
3135.00,98.20
3134.00,98.19
3133.00,98.19
3132.00,98.17
3131.00,98.16
3130.00,98.15
3129.00,98.15
3128.00,98.14
3127.00,98.14
3126.00,98.14
3125.00,98.14
3124.00,98.14
3123.00,98.15
3122.00,98.15
3121.00,98.15
3120.00,98.16
3119.00,98.16
3118.00,98.16
3117.00,98.15
3116.00,98.15
3115.00,98.14
3114.00,98.14
3113.00,98.13
3112.00,98.11
3111.00,98.10
3110.00,98.08
3109.00,98.06
3108.00,98.04
3107.00,98.02
3106.00,98.01
3105.00,97.99
3104.00,97.98
3103.00,97.97
3102.00,97.96
3101.00,97.96
3100.00,97.97
3099.00,97.97
3098.00,97.98
3097.00,98.00
3096.00,98.00
3095.00,98.01
3094.00,98.01
3093.00,98.00
3092.00,98.00
3091.00,97.99
3090.00,97.97
3089.00,97.96
3088.00,97.94
3087.00,97.92
3086.00,97.89
3085.00,97.87
3084.00,97.85
3083.00,97.83
3082.00,97.82
3081.00,97.81
3080.00,97.80
3079.00,97.80
3078.00,97.81
3077.00,97.81
3076.00,97.82
3075.00,97.82
3074.00,97.81
3073.00,97.80
3072.00,97.79
3071.00,97.78
3070.00,97.77
3069.00,97.75
3068.00,97.74
3067.00,97.73
3066.00,97.73
3065.00,97.73
3064.00,97.74
3063.00,97.75
3062.00,97.76
3061.00,97.77
3060.00,97.77
3059.00,97.76
3058.00,97.75
3057.00,97.74
3056.00,97.72
3055.00,97.70
3054.00,97.70
3053.00,97.71
3052.00,97.73
3051.00,97.77
3050.00,97.82
3049.00,97.87
3048.00,97.93
3047.00,97.98
3046.00,98.03
3045.00,98.07
3044.00,98.10
3043.00,98.12
3042.00,98.14
3041.00,98.16
3040.00,98.17
3039.00,98.18
3038.00,98.19
3037.00,98.19
3036.00,98.19
3035.00,98.19
3034.00,98.18
3033.00,98.18
3032.00,98.18
3031.00,98.17
3030.00,98.17
3029.00,98.16
3028.00,98.15
3027.00,98.14
3026.00,98.12
3025.00,98.11
3024.00,98.09
3023.00,98.07
3022.00,98.05
3021.00,98.02
3020.00,98.00
3019.00,97.97
3018.00,97.94
3017.00,97.91
3016.00,97.87
3015.00,97.83
3014.00,97.79
3013.00,97.74
3012.00,97.68
3011.00,97.62
3010.00,97.55
3009.00,97.48
3008.00,97.40
3007.00,97.32
3006.00,97.24
3005.00,97.14
3004.00,97.04
3003.00,96.94
3002.00,96.83
3001.00,96.71
3000.00,96.59
2999.00,96.46
2998.00,96.33
2997.00,96.19
2996.00,96.06
2995.00,95.92
2994.00,95.79
2993.00,95.66
2992.00,95.54
2991.00,95.41
2990.00,95.28
2989.00,95.15
2988.00,95.00
2987.00,94.85
2986.00,94.69
2985.00,94.52
2984.00,94.34
2983.00,94.15
2982.00,93.95
2981.00,93.73
2980.00,93.50
2979.00,93.26
2978.00,92.99
2977.00,92.70
2976.00,92.37
2975.00,92.02
2974.00,91.64
2973.00,91.24
2972.00,90.80
2971.00,90.35
2970.00,89.88
2969.00,89.41
2968.00,88.96
2967.00,88.54
2966.00,88.19
2965.00,87.90
2964.00,87.71
2963.00,87.60
2962.00,87.57
2961.00,87.63
2960.00,87.75
2959.00,87.92
2958.00,88.13
2957.00,88.37
2956.00,88.62
2955.00,88.88
2954.00,89.14
2953.00,89.41
2952.00,89.67
2951.00,89.94
2950.00,90.19
2949.00,90.43
2948.00,90.65
2947.00,90.86
2946.00,91.05
2945.00,91.22
2944.00,91.37
2943.00,91.50
2942.00,91.62
2941.00,91.71
2940.00,91.79
2939.00,91.84
2938.00,91.88
2937.00,91.91
2936.00,91.92
2935.00,91.93
2934.00,91.93
2933.00,91.93
2932.00,91.93
2931.00,91.95
2930.00,91.97
2929.00,91.99
2928.00,92.01
2927.00,92.03
2926.00,92.05
2925.00,92.06
2924.00,92.08
2923.00,92.10
2922.00,92.12
2921.00,92.16
2920.00,92.22
2919.00,92.30
2918.00,92.42
2917.00,92.56
2916.00,92.73
2915.00,92.91
2914.00,93.09
2913.00,93.26
2912.00,93.40
2911.00,93.51
2910.00,93.59
2909.00,93.63
2908.00,93.64
2907.00,93.62
2906.00,93.58
2905.00,93.52
2904.00,93.44
2903.00,93.36
2902.00,93.27
2901.00,93.18
2900.00,93.12
2899.00,93.07
2898.00,93.06
2897.00,93.09
2896.00,93.15
2895.00,93.25
2894.00,93.38
2893.00,93.53
2892.00,93.70
2891.00,93.88
2890.00,94.05
2889.00,94.22
2888.00,94.37
2887.00,94.52
2886.00,94.65
2885.00,94.76
2884.00,94.85
2883.00,94.92
2882.00,94.97
2881.00,95.00
2880.00,95.02
2879.00,95.03
2878.00,95.03
2877.00,95.03
2876.00,95.03
2875.00,95.04
2874.00,95.05
2873.00,95.06
2872.00,95.08
2871.00,95.11
2870.00,95.14
2869.00,95.18
2868.00,95.23
2867.00,95.27
2866.00,95.32
2865.00,95.36
2864.00,95.39
2863.00,95.41
2862.00,95.42
2861.00,95.43
2860.00,95.42
2859.00,95.41
2858.00,95.39
2857.00,95.37
2856.00,95.35
2855.00,95.33
2854.00,95.31
2853.00,95.31
2852.00,95.33
2851.00,95.38
2850.00,95.49
2849.00,95.64
2848.00,95.83
2847.00,96.04
2846.00,96.25
2845.00,96.43
2844.00,96.60
2843.00,96.74
2842.00,96.86
2841.00,96.97
2840.00,97.07
2839.00,97.15
2838.00,97.22
2837.00,97.29
2836.00,97.34
2835.00,97.40
2834.00,97.45
2833.00,97.50
2832.00,97.54
2831.00,97.58
2830.00,97.62
2829.00,97.65
2828.00,97.68
2827.00,97.72
2826.00,97.75
2825.00,97.77
2824.00,97.80
2823.00,97.83
2822.00,97.85
2821.00,97.87
2820.00,97.89
2819.00,97.90
2818.00,97.92
2817.00,97.93
2816.00,97.95
2815.00,97.96
2814.00,97.97
2813.00,97.99
2812.00,97.99
2811.00,98.00
2810.00,98.01
2809.00,98.02
2808.00,98.03
2807.00,98.04
2806.00,98.05
2805.00,98.06
2804.00,98.07
2803.00,98.08
2802.00,98.09
2801.00,98.10
2800.00,98.11
2799.00,98.11
2798.00,98.12
2797.00,98.13
2796.00,98.13
2795.00,98.14
2794.00,98.15
2793.00,98.15
2792.00,98.15
2791.00,98.15
2790.00,98.15
2789.00,98.15
2788.00,98.15
2787.00,98.15
2786.00,98.15
2785.00,98.15
2784.00,98.15
2783.00,98.15
2782.00,98.15
2781.00,98.15
2780.00,98.15
2779.00,98.15
2778.00,98.16
2777.00,98.17
2776.00,98.17
2775.00,98.18
2774.00,98.19
2773.00,98.19
2772.00,98.20
2771.00,98.21
2770.00,98.21
2769.00,98.22
2768.00,98.23
2767.00,98.23
2766.00,98.24
2765.00,98.24
2764.00,98.24
2763.00,98.24
2762.00,98.25
2761.00,98.25
2760.00,98.25
2759.00,98.26
2758.00,98.26
2757.00,98.27
2756.00,98.27
2755.00,98.28
2754.00,98.29
2753.00,98.30
2752.00,98.32
2751.00,98.33
2750.00,98.34
2749.00,98.35
2748.00,98.36
2747.00,98.37
2746.00,98.38
2745.00,98.39
2744.00,98.39
2743.00,98.40
2742.00,98.41
2741.00,98.42
2740.00,98.43
2739.00,98.43
2738.00,98.44
2737.00,98.44
2736.00,98.45
2735.00,98.45
2734.00,98.46
2733.00,98.47
2732.00,98.48
2731.00,98.49
2730.00,98.49
2729.00,98.50
2728.00,98.50
2727.00,98.51
2726.00,98.51
2725.00,98.52
2724.00,98.52
2723.00,98.52
2722.00,98.52
2721.00,98.52
2720.00,98.52
2719.00,98.52
2718.00,98.53
2717.00,98.53
2716.00,98.53
2715.00,98.53
2714.00,98.53
2713.00,98.53
2712.00,98.53
2711.00,98.53
2710.00,98.54
2709.00,98.54
2708.00,98.54
2707.00,98.55
2706.00,98.55
2705.00,98.55
2704.00,98.55
2703.00,98.55
2702.00,98.55
2701.00,98.56
2700.00,98.56
2699.00,98.55
2698.00,98.55
2697.00,98.55
2696.00,98.55
2695.00,98.55
2694.00,98.56
2693.00,98.56
2692.00,98.56
2691.00,98.56
2690.00,98.56
2689.00,98.57
2688.00,98.57
2687.00,98.57
2686.00,98.57
2685.00,98.58
2684.00,98.58
2683.00,98.58
2682.00,98.58
2681.00,98.59
2680.00,98.59
2679.00,98.59
2678.00,98.59
2677.00,98.60
2676.00,98.59
2675.00,98.59
2674.00,98.60
2673.00,98.60
2672.00,98.61
2671.00,98.61
2670.00,98.61
2669.00,98.61
2668.00,98.61
2667.00,98.61
2666.00,98.61
2665.00,98.61
2664.00,98.60
2663.00,98.59
2662.00,98.58
2661.00,98.57
2660.00,98.57
2659.00,98.56
2658.00,98.56
2657.00,98.56
2656.00,98.56
2655.00,98.55
2654.00,98.55
2653.00,98.54
2652.00,98.54
2651.00,98.53
2650.00,98.53
2649.00,98.54
2648.00,98.54
2647.00,98.54
2646.00,98.54
2645.00,98.54
2644.00,98.54
2643.00,98.54
2642.00,98.54
2641.00,98.53
2640.00,98.53
2639.00,98.53
2638.00,98.52
2637.00,98.51
2636.00,98.51
2635.00,98.50
2634.00,98.49
2633.00,98.49
2632.00,98.48
2631.00,98.48
2630.00,98.48
2629.00,98.48
2628.00,98.48
2627.00,98.49
2626.00,98.49
2625.00,98.50
2624.00,98.51
2623.00,98.51
2622.00,98.52
2621.00,98.52
2620.00,98.52
2619.00,98.53
2618.00,98.53
2617.00,98.53
2616.00,98.53
2615.00,98.53
2614.00,98.53
2613.00,98.53
2612.00,98.53
2611.00,98.54
2610.00,98.54
2609.00,98.54
2608.00,98.54
2607.00,98.54
2606.00,98.54
2605.00,98.54
2604.00,98.54
2603.00,98.54
2602.00,98.55
2601.00,98.54
2600.00,98.54
2599.00,98.54
2598.00,98.53
2597.00,98.53
2596.00,98.53
2595.00,98.53
2594.00,98.53
2593.00,98.53
2592.00,98.53
2591.00,98.53
2590.00,98.53
2589.00,98.52
2588.00,98.52
2587.00,98.51
2586.00,98.51
2585.00,98.50
2584.00,98.50
2583.00,98.49
2582.00,98.49
2581.00,98.48
2580.00,98.48
2579.00,98.47
2578.00,98.47
2577.00,98.47
2576.00,98.48
2575.00,98.48
2574.00,98.49
2573.00,98.49
2572.00,98.49
2571.00,98.49
2570.00,98.50
2569.00,98.50
2568.00,98.51
2567.00,98.51
2566.00,98.51
2565.00,98.51
2564.00,98.51
2563.00,98.51
2562.00,98.50
2561.00,98.50
2560.00,98.50
2559.00,98.51
2558.00,98.51
2557.00,98.51
2556.00,98.50
2555.00,98.50
2554.00,98.51
2553.00,98.51
2552.00,98.51
2551.00,98.51
2550.00,98.50
2549.00,98.50
2548.00,98.50
2547.00,98.50
2546.00,98.50
2545.00,98.50
2544.00,98.50
2543.00,98.50
2542.00,98.50
2541.00,98.50
2540.00,98.51
2539.00,98.52
2538.00,98.52
2537.00,98.53
2536.00,98.53
2535.00,98.53
2534.00,98.53
2533.00,98.54
2532.00,98.54
2531.00,98.55
2530.00,98.56
2529.00,98.56
2528.00,98.57
2527.00,98.57
2526.00,98.57
2525.00,98.57
2524.00,98.58
2523.00,98.59
2522.00,98.60
2521.00,98.61
2520.00,98.61
2519.00,98.62
2518.00,98.62
2517.00,98.63
2516.00,98.63
2515.00,98.64
2514.00,98.65
2513.00,98.65
2512.00,98.66
2511.00,98.66
2510.00,98.66
2509.00,98.67
2508.00,98.67
2507.00,98.68
2506.00,98.68
2505.00,98.69
2504.00,98.70
2503.00,98.71
2502.00,98.71
2501.00,98.71
2500.00,98.71
2499.00,98.71
2498.00,98.72
2497.00,98.72
2496.00,98.72
2495.00,98.72
2494.00,98.73
2493.00,98.73
2492.00,98.73
2491.00,98.74
2490.00,98.74
2489.00,98.75
2488.00,98.75
2487.00,98.76
2486.00,98.76
2485.00,98.77
2484.00,98.77
2483.00,98.78
2482.00,98.78
2481.00,98.78
2480.00,98.79
2479.00,98.79
2478.00,98.80
2477.00,98.81
2476.00,98.81
2475.00,98.81
2474.00,98.81
2473.00,98.81
2472.00,98.82
2471.00,98.82
2470.00,98.82
2469.00,98.83
2468.00,98.83
2467.00,98.83
2466.00,98.84
2465.00,98.84
2464.00,98.85
2463.00,98.85
2462.00,98.85
2461.00,98.85
2460.00,98.85
2459.00,98.85
2458.00,98.85
2457.00,98.85
2456.00,98.84
2455.00,98.84
2454.00,98.84
2453.00,98.84
2452.00,98.85
2451.00,98.85
2450.00,98.85
2449.00,98.85
2448.00,98.85
2447.00,98.85
2446.00,98.85
2445.00,98.85
2444.00,98.85
2443.00,98.85
2442.00,98.85
2441.00,98.85
2440.00,98.84
2439.00,98.84
2438.00,98.84
2437.00,98.83
2436.00,98.83
2435.00,98.83
2434.00,98.82
2433.00,98.82
2432.00,98.81
2431.00,98.79
2430.00,98.78
2429.00,98.77
2428.00,98.77
2427.00,98.76
2426.00,98.76
2425.00,98.75
2424.00,98.74
2423.00,98.73
2422.00,98.72
2421.00,98.72
2420.00,98.71
2419.00,98.71
2418.00,98.70
2417.00,98.69
2416.00,98.68
2415.00,98.67
2414.00,98.65
2413.00,98.64
2412.00,98.62
2411.00,98.61
2410.00,98.60
2409.00,98.60
2408.00,98.60
2407.00,98.60
2406.00,98.61
2405.00,98.61
2404.00,98.61
2403.00,98.60
2402.00,98.59
2401.00,98.59
2400.00,98.58
2399.00,98.58
2398.00,98.58
2397.00,98.58
2396.00,98.58
2395.00,98.58
2394.00,98.58
2393.00,98.58
2392.00,98.57
2391.00,98.57
2390.00,98.57
2389.00,98.57
2388.00,98.58
2387.00,98.58
2386.00,98.59
2385.00,98.60
2384.00,98.61
2383.00,98.62
2382.00,98.64
2381.00,98.66
2380.00,98.69
2379.00,98.71
2378.00,98.74
2377.00,98.77
2376.00,98.80
2375.00,98.82
2374.00,98.83
2373.00,98.84
2372.00,98.84
2371.00,98.85
2370.00,98.86
2369.00,98.87
2368.00,98.88
2367.00,98.89
2366.00,98.91
2365.00,98.93
2364.00,98.94
2363.00,98.95
2362.00,98.96
2361.00,98.97
2360.00,98.97
2359.00,98.98
2358.00,98.99
2357.00,99.00
2356.00,99.01
2355.00,99.02
2354.00,99.03
2353.00,99.04
2352.00,99.04
2351.00,99.05
2350.00,99.06
2349.00,99.07
2348.00,99.07
2347.00,99.07
2346.00,99.09
2345.00,99.11
2344.00,99.12
2343.00,99.12
2342.00,99.10
2341.00,99.09
2340.00,99.09
2339.00,99.09
2338.00,99.09
2337.00,99.09
2336.00,99.10
2335.00,99.11
2334.00,99.12
2333.00,99.13
2332.00,99.15
2331.00,99.15
2330.00,99.16
2329.00,99.14
2328.00,99.12
2327.00,99.07
2326.00,99.02
2325.00,98.97
2324.00,98.94
2323.00,98.94
2322.00,98.97
2321.00,99.01
2320.00,99.03
2319.00,99.05
2318.00,99.06
2317.00,99.07
2316.00,99.08
2315.00,99.08
2314.00,99.09
2313.00,99.10
2312.00,99.10
2311.00,99.10
2310.00,99.10
2309.00,99.10
2308.00,99.09
2307.00,99.08
2306.00,99.07
2305.00,99.06
2304.00,99.03
2303.00,99.01
2302.00,98.99
2301.00,98.97
2300.00,98.95
2299.00,98.94
2298.00,98.92
2297.00,98.90
2296.00,98.88
2295.00,98.86
2294.00,98.84
2293.00,98.82
2292.00,98.80
2291.00,98.77
2290.00,98.75
2289.00,98.73
2288.00,98.70
2287.00,98.68
2286.00,98.66
2285.00,98.65
2284.00,98.64
2283.00,98.64
2282.00,98.65
2281.00,98.66
2280.00,98.68
2279.00,98.69
2278.00,98.71
2277.00,98.73
2276.00,98.74
2275.00,98.76
2274.00,98.78
2273.00,98.79
2272.00,98.80
2271.00,98.81
2270.00,98.81
2269.00,98.82
2268.00,98.82
2267.00,98.83
2266.00,98.84
2265.00,98.86
2264.00,98.86
2263.00,98.86
2262.00,98.85
2261.00,98.84
2260.00,98.83
2259.00,98.82
2258.00,98.81
2257.00,98.80
2256.00,98.80
2255.00,98.81
2254.00,98.82
2253.00,98.82
2252.00,98.82
2251.00,98.82
2250.00,98.82
2249.00,98.81
2248.00,98.80
2247.00,98.80
2246.00,98.79
2245.00,98.79
2244.00,98.79
2243.00,98.79
2242.00,98.79
2241.00,98.79
2240.00,98.79
2239.00,98.79
2238.00,98.79
2237.00,98.79
2236.00,98.79
2235.00,98.79
2234.00,98.78
2233.00,98.78
2232.00,98.77
2231.00,98.77
2230.00,98.77
2229.00,98.77
2228.00,98.76
2227.00,98.76
2226.00,98.76
2225.00,98.76
2224.00,98.76
2223.00,98.76
2222.00,98.76
2221.00,98.75
2220.00,98.75
2219.00,98.75
2218.00,98.76
2217.00,98.77
2216.00,98.76
2215.00,98.76
2214.00,98.75
2213.00,98.75
2212.00,98.74
2211.00,98.73
2210.00,98.73
2209.00,98.73
2208.00,98.75
2207.00,98.76
2206.00,98.78
2205.00,98.79
2204.00,98.78
2203.00,98.79
2202.00,98.80
2201.00,98.81
2200.00,98.83
2199.00,98.84
2198.00,98.84
2197.00,98.85
2196.00,98.85
2195.00,98.85
2194.00,98.84
2193.00,98.84
2192.00,98.83
2191.00,98.83
2190.00,98.84
2189.00,98.84
2188.00,98.83
2187.00,98.83
2186.00,98.83
2185.00,98.83
2184.00,98.84
2183.00,98.87
2182.00,98.91
2181.00,98.96
2180.00,99.00
2179.00,99.01
2178.00,99.00
2177.00,99.00
2176.00,99.00
2175.00,99.01
2174.00,99.02
2173.00,99.01
2172.00,98.98
2171.00,98.95
2170.00,98.92
2169.00,98.90
2168.00,98.86
2167.00,98.83
2166.00,98.82
2165.00,98.80
2164.00,98.78
2163.00,98.74
2162.00,98.72
2161.00,98.76
2160.00,98.87
2159.00,99.04
2158.00,99.23
2157.00,99.35
2156.00,99.38
2155.00,99.37
2154.00,99.33
2153.00,99.29
2152.00,99.25
2151.00,99.22
2150.00,99.20
2149.00,99.17
2148.00,99.15
2147.00,99.13
2146.00,99.13
2145.00,99.12
2144.00,99.11
2143.00,99.09
2142.00,99.08
2141.00,99.07
2140.00,99.06
2139.00,99.05
2138.00,99.04
2137.00,99.04
2136.00,99.05
2135.00,99.07
2134.00,99.09
2133.00,99.10
2132.00,99.09
2131.00,99.07
2130.00,99.05
2129.00,99.02
2128.00,98.99
2127.00,98.96
2126.00,98.94
2125.00,98.91
2124.00,98.89
2123.00,98.87
2122.00,98.85
2121.00,98.84
2120.00,98.83
2119.00,98.82
2118.00,98.80
2117.00,98.79
2116.00,98.76
2115.00,98.75
2114.00,98.73
2113.00,98.72
2112.00,98.72
2111.00,98.72
2110.00,98.72
2109.00,98.73
2108.00,98.74
2107.00,98.75
2106.00,98.75
2105.00,98.75
2104.00,98.75
2103.00,98.75
2102.00,98.75
2101.00,98.75
2100.00,98.75
2099.00,98.76
2098.00,98.78
2097.00,98.80
2096.00,98.82
2095.00,98.84
2094.00,98.86
2093.00,98.86
2092.00,98.84
2091.00,98.82
2090.00,98.80
2089.00,98.78
2088.00,98.76
2087.00,98.75
2086.00,98.75
2085.00,98.74
2084.00,98.73
2083.00,98.72
2082.00,98.71
2081.00,98.69
2080.00,98.68
2079.00,98.68
2078.00,98.68
2077.00,98.69
2076.00,98.69
2075.00,98.69
2074.00,98.70
2073.00,98.71
2072.00,98.71
2071.00,98.71
2070.00,98.70
2069.00,98.70
2068.00,98.70
2067.00,98.71
2066.00,98.72
2065.00,98.72
2064.00,98.72
2063.00,98.73
2062.00,98.75
2061.00,98.75
2060.00,98.75
2059.00,98.75
2058.00,98.76
2057.00,98.76
2056.00,98.76
2055.00,98.78
2054.00,98.79
2053.00,98.78
2052.00,98.74
2051.00,98.68
2050.00,98.66
2049.00,98.68
2048.00,98.73
2047.00,98.77
2046.00,98.81
2045.00,98.83
2044.00,98.84
2043.00,98.85
2042.00,98.85
2041.00,98.85
2040.00,98.84
2039.00,98.84
2038.00,98.86
2037.00,98.88
2036.00,98.91
2035.00,98.94
2034.00,98.97
2033.00,99.00
2032.00,99.00
2031.00,99.01
2030.00,99.03
2029.00,99.04
2028.00,99.04
2027.00,99.04
2026.00,99.03
2025.00,99.03
2024.00,99.04
2023.00,99.06
2022.00,99.08
2021.00,99.10
2020.00,99.10
2019.00,99.10
2018.00,99.09
2017.00,99.09
2016.00,99.08
2015.00,99.06
2014.00,99.06
2013.00,99.05
2012.00,99.04
2011.00,99.04
2010.00,99.05
2009.00,99.07
2008.00,99.08
2007.00,99.10
2006.00,99.13
2005.00,99.14
2004.00,99.14
2003.00,99.13
2002.00,99.11
2001.00,99.08
2000.00,99.04
1999.00,99.01
1998.00,99.00
1997.00,98.98
1996.00,98.95
1995.00,98.92
1994.00,98.90
1993.00,98.88
1992.00,98.85
1991.00,98.82
1990.00,98.79
1989.00,98.76
1988.00,98.73
1987.00,98.71
1986.00,98.70
1985.00,98.68
1984.00,98.64
1983.00,98.59
1982.00,98.54
1981.00,98.49
1980.00,98.45
1979.00,98.46
1978.00,98.52
1977.00,98.59
1976.00,98.63
1975.00,98.64
1974.00,98.65
1973.00,98.64
1972.00,98.63
1971.00,98.61
1970.00,98.57
1969.00,98.53
1968.00,98.48
1967.00,98.42
1966.00,98.36
1965.00,98.30
1964.00,98.24
1963.00,98.18
1962.00,98.13
1961.00,98.09
1960.00,98.04
1959.00,98.00
1958.00,97.96
1957.00,97.91
1956.00,97.86
1955.00,97.83
1954.00,97.84
1953.00,97.87
1952.00,97.90
1951.00,97.94
1950.00,97.98
1949.00,98.03
1948.00,98.07
1947.00,98.12
1946.00,98.17
1945.00,98.22
1944.00,98.26
1943.00,98.30
1942.00,98.34
1941.00,98.39
1940.00,98.43
1939.00,98.48
1938.00,98.53
1937.00,98.58
1936.00,98.62
1935.00,98.65
1934.00,98.69
1933.00,98.72
1932.00,98.75
1931.00,98.79
1930.00,98.82
1929.00,98.84
1928.00,98.86
1927.00,98.88
1926.00,98.90
1925.00,98.92
1924.00,98.92
1923.00,98.92
1922.00,98.91
1921.00,98.90
1920.00,98.89
1919.00,98.88
1918.00,98.90
1917.00,98.92
1916.00,98.93
1915.00,98.93
1914.00,98.93
1913.00,98.93
1912.00,98.93
1911.00,98.93
1910.00,98.93
1909.00,98.93
1908.00,98.93
1907.00,98.92
1906.00,98.92
1905.00,98.91
1904.00,98.92
1903.00,98.93
1902.00,98.94
1901.00,98.95
1900.00,98.96
1899.00,98.96
1898.00,98.97
1897.00,98.98
1896.00,98.98
1895.00,98.98
1894.00,98.98
1893.00,98.99
1892.00,98.98
1891.00,98.98
1890.00,99.00
1889.00,99.01
1888.00,99.01
1887.00,99.00
1886.00,99.00
1885.00,99.01
1884.00,99.02
1883.00,99.02
1882.00,99.02
1881.00,99.02
1880.00,99.02
1879.00,99.02
1878.00,99.02
1877.00,99.02
1876.00,99.02
1875.00,99.01
1874.00,99.02
1873.00,99.02
1872.00,99.01
1871.00,99.00
1870.00,98.98
1869.00,98.97
1868.00,98.96
1867.00,98.95
1866.00,98.93
1865.00,98.92
1864.00,98.91
1863.00,98.91
1862.00,98.91
1861.00,98.90
1860.00,98.88
1859.00,98.86
1858.00,98.84
1857.00,98.83
1856.00,98.81
1855.00,98.79
1854.00,98.77
1853.00,98.76
1852.00,98.73
1851.00,98.71
1850.00,98.69
1849.00,98.66
1848.00,98.63
1847.00,98.59
1846.00,98.56
1845.00,98.52
1844.00,98.49
1843.00,98.46
1842.00,98.43
1841.00,98.38
1840.00,98.34
1839.00,98.31
1838.00,98.29
1837.00,98.27
1836.00,98.22
1835.00,98.17
1834.00,98.12
1833.00,98.08
1832.00,98.03
1831.00,97.99
1830.00,97.94
1829.00,97.91
1828.00,97.87
1827.00,97.82
1826.00,97.78
1825.00,97.76
1824.00,97.75
1823.00,97.75
1822.00,97.75
1821.00,97.76
1820.00,97.77
1819.00,97.80
1818.00,97.82
1817.00,97.83
1816.00,97.82
1815.00,97.80
1814.00,97.79
1813.00,97.78
1812.00,97.77
1811.00,97.75
1810.00,97.73
1809.00,97.72
1808.00,97.71
1807.00,97.69
1806.00,97.68
1805.00,97.67
1804.00,97.66
1803.00,97.64
1802.00,97.60
1801.00,97.57
1800.00,97.53
1799.00,97.51
1798.00,97.50
1797.00,97.48
1796.00,97.45
1795.00,97.41
1794.00,97.37
1793.00,97.35
1792.00,97.33
1791.00,97.29
1790.00,97.25
1789.00,97.21
1788.00,97.19
1787.00,97.18
1786.00,97.16
1785.00,97.14
1784.00,97.11
1783.00,97.06
1782.00,97.02
1781.00,96.99
1780.00,96.97
1779.00,96.94
1778.00,96.91
1777.00,96.89
1776.00,96.87
1775.00,96.83
1774.00,96.78
1773.00,96.73
1772.00,96.70
1771.00,96.68
1770.00,96.64
1769.00,96.58
1768.00,96.52
1767.00,96.47
1766.00,96.43
1765.00,96.40
1764.00,96.36
1763.00,96.29
1762.00,96.21
1761.00,96.13
1760.00,96.05
1759.00,95.93
1758.00,95.80
1757.00,95.66
1756.00,95.54
1755.00,95.40
1754.00,95.25
1753.00,95.09
1752.00,94.89
1751.00,94.63
1750.00,94.32
1749.00,94.01
1748.00,93.70
1747.00,93.36
1746.00,92.97
1745.00,92.52
1744.00,91.98
1743.00,91.30
1742.00,90.49
1741.00,89.46
1740.00,88.14
1739.00,86.64
1738.00,85.21
1737.00,83.80
1736.00,82.00
1735.00,79.19
1734.00,75.58
1733.00,72.33
1732.00,69.67
1731.00,67.05
1730.00,64.20
1729.00,61.29
1728.00,58.52
1727.00,55.83
1726.00,53.12
1725.00,50.32
1724.00,47.44
1723.00,44.61
1722.00,42.04
1721.00,39.78
1720.00,37.51
1719.00,34.66
1718.00,31.15
1717.00,27.75
1716.00,24.92
1715.00,22.36
1714.00,19.97
1713.00,17.99
1712.00,16.42
1711.00,15.09
1710.00,14.10
1709.00,13.82
1708.00,14.45
1707.00,16.01
1706.00,18.65
1705.00,22.14
1704.00,25.67
1703.00,28.88
1702.00,32.53
1701.00,37.76
1700.00,43.61
1699.00,47.89
1698.00,50.74
1697.00,53.63
1696.00,57.05
1695.00,60.21
1694.00,62.55
1693.00,64.39
1692.00,66.13
1691.00,67.91
1690.00,69.64
1689.00,71.17
1688.00,72.40
1687.00,73.36
1686.00,74.26
1685.00,75.30
1684.00,76.36
1683.00,77.10
1682.00,77.53
1681.00,77.86
1680.00,78.16
1679.00,78.42
1678.00,78.64
1677.00,78.86
1676.00,79.13
1675.00,79.48
1674.00,79.89
1673.00,80.37
1672.00,80.95
1671.00,81.72
1670.00,82.70
1669.00,83.74
1668.00,84.64
1667.00,85.35
1666.00,85.94
1665.00,86.53
1664.00,87.18
1663.00,87.85
1662.00,88.43
1661.00,88.90
1660.00,89.29
1659.00,89.63
1658.00,89.93
1657.00,90.20
1656.00,90.44
1655.00,90.66
1654.00,90.90
1653.00,91.19
1652.00,91.43
1651.00,91.54
1650.00,91.58
1649.00,91.69
1648.00,91.91
1647.00,92.13
1646.00,92.30
1645.00,92.40
1644.00,92.49
1643.00,92.58
1642.00,92.68
1641.00,92.80
1640.00,92.94
1639.00,93.07
1638.00,93.18
1637.00,93.31
1636.00,93.49
1635.00,93.67
1634.00,93.81
1633.00,93.91
1632.00,93.99
1631.00,94.08
1630.00,94.19
1629.00,94.30
1628.00,94.43
1627.00,94.54
1626.00,94.61
1625.00,94.66
1624.00,94.73
1623.00,94.79
1622.00,94.83
1621.00,94.81
1620.00,94.77
1619.00,94.70
1618.00,94.57
1617.00,94.39
1616.00,94.23
1615.00,94.15
1614.00,94.12
1613.00,94.16
1612.00,94.28
1611.00,94.44
1610.00,94.64
1609.00,94.84
1608.00,95.05
1607.00,95.25
1606.00,95.43
1605.00,95.60
1604.00,95.76
1603.00,95.91
1602.00,96.04
1601.00,96.15
1600.00,96.25
1599.00,96.33
1598.00,96.38
1597.00,96.41
1596.00,96.42
1595.00,96.41
1594.00,96.39
1593.00,96.37
1592.00,96.36
1591.00,96.35
1590.00,96.32
1589.00,96.27
1588.00,96.16
1587.00,95.98
1586.00,95.68
1585.00,95.25
1584.00,94.68
1583.00,93.99
1582.00,93.23
1581.00,92.51
1580.00,91.93
1579.00,91.55
1578.00,91.43
1577.00,91.65
1576.00,92.16
1575.00,92.77
1574.00,93.29
1573.00,93.74
1572.00,94.18
1571.00,94.65
1570.00,95.12
1569.00,95.51
1568.00,95.76
1567.00,95.90
1566.00,96.01
1565.00,96.12
1564.00,96.24
1563.00,96.32
1562.00,96.34
1561.00,96.34
1560.00,96.37
1559.00,96.44
1558.00,96.50
1557.00,96.51
1556.00,96.50
1555.00,96.49
1554.00,96.52
1553.00,96.55
1552.00,96.58
1551.00,96.60
1550.00,96.60
1549.00,96.60
1548.00,96.61
1547.00,96.62
1546.00,96.61
1545.00,96.58
1544.00,96.55
1543.00,96.51
1542.00,96.48
1541.00,96.46
1540.00,96.46
1539.00,96.45
1538.00,96.42
1537.00,96.37
1536.00,96.33
1535.00,96.30
1534.00,96.24
1533.00,96.17
1532.00,96.09
1531.00,96.01
1530.00,95.95
1529.00,95.92
1528.00,95.93
1527.00,95.96
1526.00,95.99
1525.00,96.04
1524.00,96.10
1523.00,96.17
1522.00,96.22
1521.00,96.26
1520.00,96.27
1519.00,96.25
1518.00,96.20
1517.00,96.14
1516.00,96.07
1515.00,95.96
1514.00,95.78
1513.00,95.55
1512.00,95.23
1511.00,94.82
1510.00,94.25
1509.00,93.38
1508.00,91.80
1507.00,89.39
1506.00,87.33
1505.00,86.60
1504.00,86.94
1503.00,87.94
1502.00,89.35
1501.00,90.95
1500.00,92.47
1499.00,93.76
1498.00,94.78
1497.00,95.51
1496.00,96.00
1495.00,96.31
1494.00,96.49
1493.00,96.59
1492.00,96.62
1491.00,96.61
1490.00,96.54
1489.00,96.35
1488.00,96.10
1487.00,95.86
1486.00,95.60
1485.00,95.29
1484.00,94.91
1483.00,94.44
1482.00,93.86
1481.00,93.19
1480.00,92.51
1479.00,91.85
1478.00,91.19
1477.00,90.52
1476.00,89.88
1475.00,89.32
1474.00,88.83
1473.00,88.36
1472.00,87.99
1471.00,87.77
1470.00,87.65
1469.00,87.56
1468.00,87.50
1467.00,87.44
1466.00,87.30
1465.00,86.99
1464.00,86.43
1463.00,85.60
1462.00,84.51
1461.00,83.25
1460.00,81.97
1459.00,80.90
1458.00,80.30
1457.00,80.28
1456.00,80.51
1455.00,80.63
1454.00,80.63
1453.00,80.72
1452.00,81.10
1451.00,81.86
1450.00,82.95
1449.00,84.27
1448.00,85.65
1447.00,86.87
1446.00,87.86
1445.00,88.70
1444.00,89.46
1443.00,90.13
1442.00,90.70
1441.00,91.16
1440.00,91.52
1439.00,91.80
1438.00,92.06
1437.00,92.35
1436.00,92.64
1435.00,92.87
1434.00,93.07
1433.00,93.31
1432.00,93.59
1431.00,93.87
1430.00,94.13
1429.00,94.35
1428.00,94.50
1427.00,94.57
1426.00,94.59
1425.00,94.54
1424.00,94.40
1423.00,94.18
1422.00,93.90
1421.00,93.47
1420.00,92.71
1419.00,91.50
1418.00,89.91
1417.00,88.04
1416.00,85.79
1415.00,83.08
1414.00,79.90
1413.00,76.37
1412.00,72.80
1411.00,69.76
1410.00,67.73
1409.00,66.97
1408.00,67.51
1407.00,69.29
1406.00,72.06
1405.00,75.26
1404.00,78.21
1403.00,80.48
1402.00,82.09
1401.00,83.20
1400.00,83.92
1399.00,84.25
1398.00,84.25
1397.00,83.96
1396.00,83.44
1395.00,82.73
1394.00,81.97
1393.00,81.25
1392.00,80.57
1391.00,79.94
1390.00,79.36
1389.00,78.86
1388.00,78.52
1387.00,78.45
1386.00,78.69
1385.00,79.18
1384.00,79.86
1383.00,80.69
1382.00,81.59
1381.00,82.50
1380.00,83.41
1379.00,84.31
1378.00,85.16
1377.00,85.95
1376.00,86.71
1375.00,87.45
1374.00,88.15
1373.00,88.72
1372.00,89.18
1371.00,89.58
1370.00,89.94
1369.00,90.27
1368.00,90.58
1367.00,90.88
1366.00,91.17
1365.00,91.45
1364.00,91.75
1363.00,92.05
1362.00,92.31
1361.00,92.53
1360.00,92.70
1359.00,92.83
1358.00,92.89
1357.00,92.87
1356.00,92.74
1355.00,92.52
1354.00,92.21
1353.00,91.86
1352.00,91.52
1351.00,91.30
1350.00,91.24
1349.00,91.39
1348.00,91.71
1347.00,92.09
1346.00,92.46
1345.00,92.75
1344.00,92.97
1343.00,93.10
1342.00,93.16
1341.00,93.14
1340.00,93.04
1339.00,92.89
1338.00,92.68
1337.00,92.45
1336.00,92.17
1335.00,91.84
1334.00,91.42
1333.00,90.92
1332.00,90.32
1331.00,89.62
1330.00,88.85
1329.00,87.99
1328.00,87.05
1327.00,86.06
1326.00,85.02
1325.00,83.99
1324.00,83.05
1323.00,82.32
1322.00,81.91
1321.00,81.84
1320.00,82.10
1319.00,82.60
1318.00,83.22
1317.00,83.81
1316.00,84.31
1315.00,84.67
1314.00,84.88
1313.00,84.91
1312.00,84.78
1311.00,84.52
1310.00,84.16
1309.00,83.70
1308.00,83.15
1307.00,82.55
1306.00,81.95
1305.00,81.35
1304.00,80.77
1303.00,80.21
1302.00,79.64
1301.00,79.01
1300.00,78.28
1299.00,77.41
1298.00,76.40
1297.00,75.23
1296.00,73.87
1295.00,72.35
1294.00,70.67
1293.00,68.82
1292.00,66.81
1291.00,64.70
1290.00,62.52
1289.00,60.30
1288.00,58.06
1287.00,55.84
1286.00,53.69
1285.00,51.57
1284.00,49.48
1283.00,47.44
1282.00,45.45
1281.00,43.49
1280.00,41.55
1279.00,39.66
1278.00,37.84
1277.00,36.02
1276.00,34.21
1275.00,32.45
1274.00,30.72
1273.00,28.99
1272.00,27.26
1271.00,25.59
1270.00,24.02
1269.00,22.54
1268.00,21.17
1267.00,20.00
1266.00,19.07
1265.00,18.37
1264.00,17.89
1263.00,17.69
1262.00,17.74
1261.00,17.95
1260.00,18.24
1259.00,18.58
1258.00,18.92
1257.00,19.14
1256.00,19.21
1255.00,19.16
1254.00,19.01
1253.00,18.71
1252.00,18.29
1251.00,17.82
1250.00,17.35
1249.00,16.83
1248.00,16.28
1247.00,15.79
1246.00,15.43
1245.00,15.18
1244.00,15.11
1243.00,15.31
1242.00,15.81
1241.00,16.57
1240.00,17.56
1239.00,18.86
1238.00,20.44
1237.00,22.22
1236.00,24.16
1235.00,26.28
1234.00,28.55
1233.00,30.87
1232.00,33.20
1231.00,35.55
1230.00,37.89
1229.00,40.16
1228.00,42.34
1227.00,44.46
1226.00,46.50
1225.00,48.41
1224.00,50.19
1223.00,51.86
1222.00,53.43
1221.00,54.86
1220.00,56.17
1219.00,57.38
1218.00,58.52
1217.00,59.56
1216.00,60.50
1215.00,61.33
1214.00,61.99
1213.00,62.40
1212.00,62.50
1211.00,62.29
1210.00,61.86
1209.00,61.36
1208.00,61.05
1207.00,61.15
1206.00,61.74
1205.00,62.75
1204.00,64.08
1203.00,65.60
1202.00,67.23
1201.00,68.87
1200.00,70.48
1199.00,72.03
1198.00,73.50
1197.00,74.85
1196.00,76.09
1195.00,77.23
1194.00,78.27
1193.00,79.21
1192.00,80.07
1191.00,80.84
1190.00,81.54
1189.00,82.16
1188.00,82.69
1187.00,83.15
1186.00,83.52
1185.00,83.78
1184.00,83.93
1183.00,83.97
1182.00,83.93
1181.00,83.82
1180.00,83.63
1179.00,83.40
1178.00,83.13
1177.00,82.84
1176.00,82.58
1175.00,82.39
1174.00,82.33
1173.00,82.42
1172.00,82.71
1171.00,83.20
1170.00,83.88
1169.00,84.69
1168.00,85.55
1167.00,86.40
1166.00,87.17
1165.00,87.81
1164.00,88.31
1163.00,88.67
1162.00,88.91
1161.00,89.04
1160.00,89.09
1159.00,89.07
1158.00,88.97
1157.00,88.81
1156.00,88.60
1155.00,88.32
1154.00,87.98
1153.00,87.60
1152.00,87.18
1151.00,86.75
1150.00,86.31
1149.00,85.87
1148.00,85.43
1147.00,85.01
1146.00,84.58
1145.00,84.15
1144.00,83.70
1143.00,83.22
1142.00,82.68
1141.00,82.05
1140.00,81.30
1139.00,80.41
1138.00,79.35
1137.00,78.07
1136.00,76.56
1135.00,74.81
1134.00,72.80
1133.00,70.54
1132.00,68.04
1131.00,65.36
1130.00,62.56
1129.00,59.68
1128.00,56.80
1127.00,53.99
1126.00,51.29
1125.00,48.69
1124.00,46.22
1123.00,43.88
1122.00,41.70
1121.00,39.64
1120.00,37.75
1119.00,36.14
1118.00,34.93
1117.00,34.16
1116.00,33.87
1115.00,34.07
1114.00,34.60
1113.00,35.23
1112.00,35.66
1111.00,35.65
1110.00,34.98
1109.00,33.55
1108.00,31.43
1107.00,28.89
1106.00,26.19
1105.00,23.52
1104.00,21.05
1103.00,18.94
1102.00,17.29
1101.00,16.08
1100.00,15.32
1099.00,15.05
1098.00,15.25
1097.00,15.81
1096.00,16.70
1095.00,17.90
1094.00,19.35
1093.00,20.92
1092.00,22.51
1091.00,24.09
1090.00,25.60
1089.00,26.93
1088.00,28.09
1087.00,29.17
1086.00,30.26
1085.00,31.45
1084.00,32.85
1083.00,34.58
1082.00,36.66
1081.00,39.00
1080.00,41.52
1079.00,44.14
1078.00,46.75
1077.00,49.23
1076.00,51.53
1075.00,53.62
1074.00,55.50
1073.00,57.14
1072.00,58.57
1071.00,59.83
1070.00,60.95
1069.00,61.94
1068.00,62.83
1067.00,63.66
1066.00,64.46
1065.00,65.23
1064.00,65.98
1063.00,66.73
1062.00,67.48
1061.00,68.21
1060.00,68.91
1059.00,69.61
1058.00,70.28
1057.00,70.92
1056.00,71.51
1055.00,72.06
1054.00,72.54
1053.00,72.94
1052.00,73.26
1051.00,73.47
1050.00,73.60
1049.00,73.63
1048.00,73.62
1047.00,73.59
1046.00,73.58
1045.00,73.59
1044.00,73.61
1043.00,73.63
1042.00,73.64
1041.00,73.60
1040.00,73.50
1039.00,73.33
1038.00,73.10
1037.00,72.78
1036.00,72.32
1035.00,71.68
1034.00,70.82
1033.00,69.71
1032.00,68.39
1031.00,67.01
1030.00,65.75
1029.00,64.78
1028.00,64.16
1027.00,63.81
1026.00,63.48
1025.00,62.79
1024.00,61.35
1023.00,58.87
1022.00,55.26
1021.00,50.67
1020.00,45.54
1019.00,40.66
1018.00,37.02
1017.00,35.53
1016.00,36.67
1015.00,40.17
1014.00,45.07
1013.00,50.25
1012.00,55.01
1011.00,59.14
1010.00,62.68
1009.00,65.69
1008.00,68.19
1007.00,70.22
1006.00,71.85
1005.00,73.13
1004.00,74.12
1003.00,74.87
1002.00,75.43
1001.00,75.81
1000.00,76.00
999.00,76.05
998.00,75.96
997.00,75.73
996.00,75.40
995.00,74.99
994.00,74.56
993.00,74.14
992.00,73.79
991.00,73.54
990.00,73.37
989.00,73.27
988.00,73.21
987.00,73.20
986.00,73.24
985.00,73.34
984.00,73.50
983.00,73.73
982.00,74.03
981.00,74.37
980.00,74.69
979.00,74.95
978.00,75.13
977.00,75.17
976.00,75.07
975.00,74.83
974.00,74.50
973.00,74.10
972.00,73.67
971.00,73.26
970.00,72.89
969.00,72.53
968.00,72.18
967.00,71.87
966.00,71.59
965.00,71.35
964.00,71.14
963.00,70.98
962.00,70.86
961.00,70.76
960.00,70.68
959.00,70.61
958.00,70.57
957.00,70.53
956.00,70.52
955.00,70.53
954.00,70.57
953.00,70.62
952.00,70.66
951.00,70.68
950.00,70.65
949.00,70.52
948.00,70.27
947.00,69.88
946.00,69.36
945.00,68.68
944.00,67.87
943.00,66.96
942.00,65.99
941.00,65.00
940.00,64.05
939.00,63.20
938.00,62.51
937.00,61.99
936.00,61.64
935.00,61.49
934.00,61.54
933.00,61.77
932.00,62.20
931.00,62.86
930.00,63.77
929.00,64.84
928.00,65.99
927.00,67.10
926.00,68.06
925.00,68.76
924.00,69.13
923.00,69.15
922.00,68.82
921.00,68.15
920.00,67.22
919.00,66.18
918.00,65.21
917.00,64.56
916.00,64.44
915.00,65.01
914.00,66.25
913.00,67.96
912.00,69.89
911.00,71.83
910.00,73.61
909.00,75.15
908.00,76.46
907.00,77.55
906.00,78.45
905.00,79.18
904.00,79.79
903.00,80.31
902.00,80.75
901.00,81.14
900.00,81.48
899.00,81.78
898.00,82.06
897.00,82.33
896.00,82.58
895.00,82.83
894.00,83.07
893.00,83.28
892.00,83.46
891.00,83.58
890.00,83.63
889.00,83.55
888.00,83.33
887.00,82.94
886.00,82.34
885.00,81.51
884.00,80.41
883.00,79.05
882.00,77.42
881.00,75.53
880.00,73.40
879.00,71.07
878.00,68.53
877.00,65.68
876.00,62.44
875.00,58.97
874.00,55.88
873.00,54.19
872.00,54.70
871.00,57.45
870.00,61.57
869.00,65.88
868.00,69.56
867.00,72.38
866.00,74.43
865.00,75.89
864.00,76.95
863.00,77.73
862.00,78.34
861.00,78.82
860.00,79.19
859.00,79.50
858.00,79.77
857.00,79.96
856.00,80.10
855.00,80.20
854.00,80.29
853.00,80.35
852.00,80.38
851.00,80.40
850.00,80.43
849.00,80.45
848.00,80.47
847.00,80.51
846.00,80.57
845.00,80.65
844.00,80.75
843.00,80.89
842.00,81.06
841.00,81.24
840.00,81.41
839.00,81.59
838.00,81.77
837.00,81.92
836.00,82.03
835.00,82.14
834.00,82.23
833.00,82.31
832.00,82.37
831.00,82.43
830.00,82.48
829.00,82.50
828.00,82.51
827.00,82.53
826.00,82.54
825.00,82.51
824.00,82.44
823.00,82.32
822.00,82.14
821.00,81.89
820.00,81.54
819.00,81.13
818.00,80.66
817.00,80.12
816.00,79.51
815.00,78.91
814.00,78.38
813.00,78.01
812.00,77.89
811.00,78.06
810.00,78.48
809.00,79.04
808.00,79.62
807.00,80.15
806.00,80.61
805.00,81.01
804.00,81.34
803.00,81.64
802.00,81.87
801.00,81.94
800.00,81.74
799.00,81.18
798.00,80.30
797.00,79.29
796.00,78.46
795.00,78.11
794.00,78.34
793.00,79.02
792.00,79.96
791.00,80.98
790.00,81.96
789.00,82.86
788.00,83.66
787.00,84.37
786.00,84.99
785.00,85.51
784.00,85.94
783.00,86.29
782.00,86.59
781.00,86.82
780.00,87.02
779.00,87.21
778.00,87.40
777.00,87.58
776.00,87.75
775.00,87.91
774.00,88.06
773.00,88.21
772.00,88.36
771.00,88.51
770.00,88.66
769.00,88.80
768.00,88.91
767.00,89.00
766.00,89.06
765.00,89.09
764.00,89.06
763.00,88.99
762.00,88.86
761.00,88.64
760.00,88.31
759.00,87.87
758.00,87.30
757.00,86.57
756.00,85.67
755.00,84.67
754.00,83.65
753.00,82.70
752.00,81.93
751.00,81.46
750.00,81.34
749.00,81.52
748.00,81.93
747.00,82.46
746.00,82.98
745.00,83.32
744.00,83.34
743.00,82.89
742.00,81.85
741.00,80.06
740.00,77.43
739.00,74.00
738.00,69.89
737.00,65.26
736.00,60.30
735.00,55.22
734.00,50.16
733.00,45.12
732.00,40.05
731.00,34.96
730.00,29.81
729.00,24.56
728.00,19.33
727.00,14.54
726.00,10.74
725.00,8.37
724.00,7.62
723.00,8.42
722.00,10.56
721.00,13.81
720.00,17.91
719.00,22.52
718.00,27.27
717.00,31.88
716.00,36.22
715.00,40.21
714.00,43.80
713.00,46.92
712.00,49.57
711.00,51.72
710.00,53.39
709.00,54.59
708.00,55.42
707.00,56.06
706.00,56.69
705.00,57.46
704.00,58.44
703.00,59.67
702.00,61.07
701.00,62.52
700.00,63.94
699.00,65.26
698.00,66.46
697.00,67.52
696.00,68.46
695.00,69.28
694.00,70.02
693.00,70.67
692.00,71.24
691.00,71.75
690.00,72.21
689.00,72.60
688.00,72.92
687.00,73.19
686.00,73.41
685.00,73.58
684.00,73.68
683.00,73.73
682.00,73.76
681.00,73.84
680.00,74.00
679.00,74.29
678.00,74.66
677.00,75.05
676.00,75.42
675.00,75.75
674.00,76.05
673.00,76.30
672.00,76.51
671.00,76.71
670.00,76.93
669.00,77.20
668.00,77.48
667.00,77.71
666.00,77.91
665.00,78.15
664.00,78.40
663.00,78.63
662.00,78.83
661.00,79.01
660.00,79.17
659.00,79.33
658.00,79.49
657.00,79.65
656.00,79.80
655.00,79.94
654.00,80.06
653.00,80.15
652.00,80.22
651.00,80.27
650.00,80.34
