Created as New Dataset,EVOH (29mol%) Soarnol
cm-1,%T
4000.00,98.00
3999.00,98.00
3998.00,98.00
3997.00,98.00
3996.00,98.01
3995.00,98.01
3994.00,98.01
3993.00,98.01
3992.00,98.01
3991.00,98.01
3990.00,98.01
3989.00,98.02
3988.00,98.02
3987.00,98.02
3986.00,98.02
3985.00,98.02
3984.00,98.01
3983.00,98.01
3982.00,98.01
3981.00,98.01
3980.00,98.01
3979.00,98.02
3978.00,98.02
3977.00,98.02
3976.00,98.02
3975.00,98.02
3974.00,98.02
3973.00,98.02
3972.00,98.02
3971.00,98.02
3970.00,98.02
3969.00,98.02
3968.00,98.02
3967.00,98.02
3966.00,98.01
3965.00,98.01
3964.00,98.01
3963.00,98.02
3962.00,98.02
3961.00,98.02
3960.00,98.02
3959.00,98.02
3958.00,98.02
3957.00,98.02
3956.00,98.03
3955.00,98.03
3954.00,98.03
3953.00,98.03
3952.00,98.03
3951.00,98.03
3950.00,98.02
3949.00,98.02
3948.00,98.02
3947.00,98.03
3946.00,98.03
3945.00,98.03
3944.00,98.03
3943.00,98.03
3942.00,98.03
3941.00,98.03
3940.00,98.03
3939.00,98.03
3938.00,98.03
3937.00,98.03
3936.00,98.03
3935.00,98.03
3934.00,98.03
3933.00,98.03
3932.00,98.03
3931.00,98.03
3930.00,98.03
3929.00,98.03
3928.00,98.03
3927.00,98.03
3926.00,98.03
3925.00,98.03
3924.00,98.04
3923.00,98.04
3922.00,98.04
3921.00,98.04
3920.00,98.04
3919.00,98.03
3918.00,98.03
3917.00,98.03
3916.00,98.04
3915.00,98.04
3914.00,98.04
3913.00,98.04
3912.00,98.04
3911.00,98.04
3910.00,98.03
3909.00,98.04
3908.00,98.04
3907.00,98.04
3906.00,98.04
3905.00,98.05
3904.00,98.05
3903.00,98.05
3902.00,98.04
3901.00,98.04
3900.00,98.04
3899.00,98.04
3898.00,98.04
3897.00,98.04
3896.00,98.04
3895.00,98.04
3894.00,98.04
3893.00,98.04
3892.00,98.03
3891.00,98.03
3890.00,98.04
3889.00,98.04
3888.00,98.04
3887.00,98.04
3886.00,98.04
3885.00,98.05
3884.00,98.05
3883.00,98.04
3882.00,98.04
3881.00,98.04
3880.00,98.04
3879.00,98.04
3878.00,98.05
3877.00,98.05
3876.00,98.04
3875.00,98.05
3874.00,98.05
3873.00,98.05
3872.00,98.04
3871.00,98.03
3870.00,98.03
3869.00,98.04
3868.00,98.04
3867.00,98.04
3866.00,98.04
3865.00,98.04
3864.00,98.04
3863.00,98.05
3862.00,98.05
3861.00,98.05
3860.00,98.05
3859.00,98.06
3858.00,98.06
3857.00,98.06
3856.00,98.06
3855.00,98.05
3854.00,98.05
3853.00,98.05
3852.00,98.05
3851.00,98.04
3850.00,98.04
3849.00,98.04
3848.00,98.04
3847.00,98.04
3846.00,98.05
3845.00,98.05
3844.00,98.05
3843.00,98.05
3842.00,98.05
3841.00,98.05
3840.00,98.05
3839.00,98.05
3838.00,98.05
3837.00,98.05
3836.00,98.05
3835.00,98.04
3834.00,98.04
3833.00,98.04
3832.00,98.04
3831.00,98.04
3830.00,98.04
3829.00,98.04
3828.00,98.04
3827.00,98.04
3826.00,98.05
3825.00,98.05
3824.00,98.04
3823.00,98.04
3822.00,98.04
3821.00,98.04
3820.00,98.05
3819.00,98.04
3818.00,98.03
3817.00,98.03
3816.00,98.03
3815.00,98.04
3814.00,98.04
3813.00,98.04
3812.00,98.04
3811.00,98.04
3810.00,98.04
3809.00,98.04
3808.00,98.04
3807.00,98.04
3806.00,98.04
3805.00,98.04
3804.00,98.04
3803.00,98.04
3802.00,98.04
3801.00,98.05
3800.00,98.05
3799.00,98.04
3798.00,98.03
3797.00,98.03
3796.00,98.03
3795.00,98.04
3794.00,98.04
3793.00,98.04
3792.00,98.04
3791.00,98.04
3790.00,98.03
3789.00,98.03
3788.00,98.04
3787.00,98.04
3786.00,98.04
3785.00,98.04
3784.00,98.04
3783.00,98.04
3782.00,98.03
3781.00,98.03
3780.00,98.03
3779.00,98.04
3778.00,98.03
3777.00,98.03
3776.00,98.03
3775.00,98.03
3774.00,98.03
3773.00,98.04
3772.00,98.04
3771.00,98.04
3770.00,98.03
3769.00,98.03
3768.00,98.03
3767.00,98.02
3766.00,98.02
3765.00,98.02
3764.00,98.03
3763.00,98.03
3762.00,98.03
3761.00,98.03
3760.00,98.04
3759.00,98.04
3758.00,98.04
3757.00,98.04
3756.00,98.03
3755.00,98.03
3754.00,98.03
3753.00,98.03
3752.00,98.03
3751.00,98.03
3750.00,98.04
3749.00,98.04
3748.00,98.04
3747.00,98.04
3746.00,98.04
3745.00,98.03
3744.00,98.03
3743.00,98.03
3742.00,98.03
3741.00,98.03
3740.00,98.03
3739.00,98.04
3738.00,98.04
3737.00,98.05
3736.00,98.05
3735.00,98.06
3734.00,98.06
3733.00,98.05
3732.00,98.05
3731.00,98.05
3730.00,98.05
3729.00,98.05
3728.00,98.05
3727.00,98.05
3726.00,98.06
3725.00,98.06
3724.00,98.06
3723.00,98.05
3722.00,98.05
3721.00,98.05
3720.00,98.05
3719.00,98.05
3718.00,98.05
3717.00,98.05
3716.00,98.05
3715.00,98.05
3714.00,98.05
3713.00,98.05
3712.00,98.06
3711.00,98.06
3710.00,98.06
3709.00,98.06
3708.00,98.06
3707.00,98.06
3706.00,98.06
3705.00,98.05
3704.00,98.05
3703.00,98.05
3702.00,98.05
3701.00,98.05
3700.00,98.05
3699.00,98.05
3698.00,98.05
3697.00,98.06
3696.00,98.06
3695.00,98.06
3694.00,98.06
3693.00,98.06
3692.00,98.06
3691.00,98.06
3690.00,98.06
3689.00,98.06
3688.00,98.06
3687.00,98.05
3686.00,98.04
3685.00,98.03
3684.00,98.03
3683.00,98.03
3682.00,98.03
3681.00,98.03
3680.00,98.03
3679.00,98.02
3678.00,98.02
3677.00,98.01
3676.00,98.00
3675.00,97.99
3674.00,97.98
3673.00,97.97
3672.00,97.97
3671.00,97.96
3670.00,97.97
3669.00,97.97
3668.00,97.96
3667.00,97.96
3666.00,97.95
3665.00,97.95
3664.00,97.95
3663.00,97.95
3662.00,97.95
3661.00,97.94
3660.00,97.93
3659.00,97.93
3658.00,97.92
3657.00,97.92
3656.00,97.92
3655.00,97.92
3654.00,97.92
3653.00,97.91
3652.00,97.90
3651.00,97.90
3650.00,97.90
3649.00,97.90
3648.00,97.89
3647.00,97.88
3646.00,97.87
3645.00,97.87
3644.00,97.86
3643.00,97.85
3642.00,97.84
3641.00,97.83
3640.00,97.81
3639.00,97.80
3638.00,97.79
3637.00,97.78
3636.00,97.77
3635.00,97.76
3634.00,97.75
3633.00,97.74
3632.00,97.72
3631.00,97.71
3630.00,97.69
3629.00,97.67
3628.00,97.66
3627.00,97.64
3626.00,97.62
3625.00,97.61
3624.00,97.59
3623.00,97.57
3622.00,97.55
3621.00,97.53
3620.00,97.52
3619.00,97.50
3618.00,97.48
3617.00,97.47
3616.00,97.45
3615.00,97.43
3614.00,97.42
3613.00,97.41
3612.00,97.40
3611.00,97.38
3610.00,97.36
3609.00,97.34
3608.00,97.32
3607.00,97.30
3606.00,97.28
3605.00,97.27
3604.00,97.25
3603.00,97.23
3602.00,97.21
3601.00,97.18
3600.00,97.16
3599.00,97.14
3598.00,97.12
3597.00,97.10
3596.00,97.07
3595.00,97.05
3594.00,97.03
3593.00,97.01
3592.00,97.00
3591.00,96.98
3590.00,96.95
3589.00,96.93
3588.00,96.90
3587.00,96.88
3586.00,96.86
3585.00,96.83
3584.00,96.81
3583.00,96.78
3582.00,96.76
3581.00,96.73
3580.00,96.70
3579.00,96.68
3578.00,96.65
3577.00,96.61
3576.00,96.58
3575.00,96.55
3574.00,96.52
3573.00,96.50
3572.00,96.47
3571.00,96.44
3570.00,96.40
3569.00,96.36
3568.00,96.32
3567.00,96.28
3566.00,96.24
3565.00,96.19
3564.00,96.15
3563.00,96.11
3562.00,96.07
3561.00,96.04
3560.00,96.00
3559.00,95.96
3558.00,95.92
3557.00,95.88
3556.00,95.84
3555.00,95.79
3554.00,95.74
3553.00,95.70
3552.00,95.65
3551.00,95.60
3550.00,95.56
3549.00,95.51
3548.00,95.46
3547.00,95.40
3546.00,95.35
3545.00,95.30
3544.00,95.24
3543.00,95.19
3542.00,95.14
3541.00,95.08
3540.00,95.03
3539.00,94.98
3538.00,94.92
3537.00,94.86
3536.00,94.81
3535.00,94.75
3534.00,94.69
3533.00,94.63
3532.00,94.57
3531.00,94.51
3530.00,94.45
3529.00,94.39
3528.00,94.33
3527.00,94.26
3526.00,94.20
3525.00,94.14
3524.00,94.07
3523.00,94.00
3522.00,93.94
3521.00,93.87
3520.00,93.81
3519.00,93.74
3518.00,93.67
3517.00,93.60
3516.00,93.53
3515.00,93.46
3514.00,93.40
3513.00,93.33
3512.00,93.26
3511.00,93.19
3510.00,93.12
3509.00,93.05
3508.00,92.97
3507.00,92.91
3506.00,92.84
3505.00,92.77
3504.00,92.69
3503.00,92.62
3502.00,92.54
3501.00,92.47
3500.00,92.40
3499.00,92.32
3498.00,92.25
3497.00,92.17
3496.00,92.09
3495.00,92.02
3494.00,91.95
3493.00,91.87
3492.00,91.80
3491.00,91.72
3490.00,91.65
3489.00,91.57
3488.00,91.49
3487.00,91.42
3486.00,91.34
3485.00,91.26
3484.00,91.19
3483.00,91.11
3482.00,91.03
3481.00,90.95
3480.00,90.88
3479.00,90.80
3478.00,90.72
3477.00,90.64
3476.00,90.56
3475.00,90.48
3474.00,90.39
3473.00,90.31
3472.00,90.24
3471.00,90.16
3470.00,90.09
3469.00,90.01
3468.00,89.93
3467.00,89.85
3466.00,89.78
3465.00,89.70
3464.00,89.62
3463.00,89.54
3462.00,89.45
3461.00,89.37
3460.00,89.29
3459.00,89.21
3458.00,89.13
3457.00,89.06
3456.00,88.98
3455.00,88.90
3454.00,88.82
3453.00,88.74
3452.00,88.66
3451.00,88.58
3450.00,88.50
3449.00,88.42
3448.00,88.33
3447.00,88.24
3446.00,88.16
3445.00,88.08
3444.00,88.00
3443.00,87.92
3442.00,87.84
3441.00,87.76
3440.00,87.68
3439.00,87.60
3438.00,87.52
3437.00,87.44
3436.00,87.36
3435.00,87.28
3434.00,87.20
3433.00,87.12
3432.00,87.04
3431.00,86.96
3430.00,86.88
3429.00,86.79
3428.00,86.71
3427.00,86.63
3426.00,86.56
3425.00,86.48
3424.00,86.41
3423.00,86.33
3422.00,86.25
3421.00,86.16
3420.00,86.08
3419.00,86.00
3418.00,85.92
3417.00,85.84
3416.00,85.77
3415.00,85.69
3414.00,85.61
3413.00,85.53
3412.00,85.45
3411.00,85.37
3410.00,85.30
3409.00,85.22
3408.00,85.15
3407.00,85.08
3406.00,85.00
3405.00,84.93
3404.00,84.85
3403.00,84.78
3402.00,84.70
3401.00,84.63
3400.00,84.56
3399.00,84.49
3398.00,84.42
3397.00,84.35
3396.00,84.29
3395.00,84.22
3394.00,84.15
3393.00,84.07
3392.00,84.00
3391.00,83.94
3390.00,83.88
3389.00,83.81
3388.00,83.75
3387.00,83.69
3386.00,83.63
3385.00,83.56
3384.00,83.50
3383.00,83.44
3382.00,83.37
3381.00,83.31
3380.00,83.25
3379.00,83.19
3378.00,83.13
3377.00,83.08
3376.00,83.02
3375.00,82.96
3374.00,82.91
3373.00,82.85
3372.00,82.80
3371.00,82.74
3370.00,82.68
3369.00,82.63
3368.00,82.58
3367.00,82.53
3366.00,82.47
3365.00,82.42
3364.00,82.38
3363.00,82.33
3362.00,82.29
3361.00,82.24
3360.00,82.20
3359.00,82.15
3358.00,82.10
3357.00,82.06
3356.00,82.01
3355.00,81.97
3354.00,81.93
3353.00,81.89
3352.00,81.85
3351.00,81.81
3350.00,81.77
3349.00,81.73
3348.00,81.69
3347.00,81.66
3346.00,81.62
3345.00,81.59
3344.00,81.55
3343.00,81.52
3342.00,81.48
3341.00,81.45
3340.00,81.42
3339.00,81.39
3338.00,81.35
3337.00,81.32
3336.00,81.29
3335.00,81.27
3334.00,81.24
3333.00,81.22
3332.00,81.19
3331.00,81.17
3330.00,81.14
3329.00,81.12
3328.00,81.09
3327.00,81.07
3326.00,81.04
3325.00,81.02
3324.00,81.00
3323.00,80.99
3322.00,80.97
3321.00,80.96
3320.00,80.95
3319.00,80.93
3318.00,80.92
3317.00,80.90
3316.00,80.88
3315.00,80.86
3314.00,80.84
3313.00,80.83
3312.00,80.81
3311.00,80.80
3310.00,80.79
3309.00,80.78
3308.00,80.77
3307.00,80.77
3306.00,80.76
3305.00,80.76
3304.00,80.75
3303.00,80.74
3302.00,80.74
3301.00,80.73
3300.00,80.73
3299.00,80.72
3298.00,80.72
3297.00,80.72
3296.00,80.72
3295.00,80.72
3294.00,80.72
3293.00,80.72
3292.00,80.73
3291.00,80.74
3290.00,80.74
3289.00,80.75
3288.00,80.76
3287.00,80.76
3286.00,80.77
3285.00,80.78
3284.00,80.78
3283.00,80.79
3282.00,80.80
3281.00,80.81
3280.00,80.82
3279.00,80.84
3278.00,80.85
3277.00,80.86
3276.00,80.88
3275.00,80.89
3274.00,80.90
3273.00,80.92
3272.00,80.93
3271.00,80.95
3270.00,80.97
3269.00,80.99
3268.00,81.02
3267.00,81.04
3266.00,81.07
3265.00,81.09
3264.00,81.11
3263.00,81.14
3262.00,81.16
3261.00,81.19
3260.00,81.22
3259.00,81.25
3258.00,81.28
3257.00,81.31
3256.00,81.34
3255.00,81.37
3254.00,81.40
3253.00,81.43
3252.00,81.47
3251.00,81.50
3250.00,81.53
3249.00,81.57
3248.00,81.60
3247.00,81.64
3246.00,81.68
3245.00,81.72
3244.00,81.75
3243.00,81.79
3242.00,81.83
3241.00,81.87
3240.00,81.92
3239.00,81.96
3238.00,82.00
3237.00,82.05
3236.00,82.09
3235.00,82.13
3234.00,82.18
3233.00,82.23
3232.00,82.27
3231.00,82.33
3230.00,82.38
3229.00,82.43
3228.00,82.47
3227.00,82.52
3226.00,82.57
3225.00,82.62
3224.00,82.68
3223.00,82.73
3222.00,82.79
3221.00,82.84
3220.00,82.89
3219.00,82.95
3218.00,83.01
3217.00,83.06
3216.00,83.12
3215.00,83.17
3214.00,83.23
3213.00,83.30
3212.00,83.36
3211.00,83.42
3210.00,83.48
3209.00,83.54
3208.00,83.60
3207.00,83.66
3206.00,83.72
3205.00,83.79
3204.00,83.85
3203.00,83.91
3202.00,83.98
3201.00,84.05
3200.00,84.11
3199.00,84.18
3198.00,84.24
3197.00,84.31
3196.00,84.37
3195.00,84.44
3194.00,84.50
3193.00,84.57
3192.00,84.63
3191.00,84.70
3190.00,84.77
3189.00,84.85
3188.00,84.92
3187.00,84.99
3186.00,85.06
3185.00,85.12
3184.00,85.19
3183.00,85.26
3182.00,85.33
3181.00,85.40
3180.00,85.47
3179.00,85.54
3178.00,85.62
3177.00,85.69
3176.00,85.76
3175.00,85.84
3174.00,85.91
3173.00,85.98
3172.00,86.05
3171.00,86.12
3170.00,86.19
3169.00,86.27
3168.00,86.34
3167.00,86.42
3166.00,86.49
3165.00,86.56
3164.00,86.63
3163.00,86.70
3162.00,86.77
3161.00,86.84
3160.00,86.91
3159.00,86.99
3158.00,87.06
3157.00,87.13
3156.00,87.20
3155.00,87.28
3154.00,87.35
3153.00,87.42
3152.00,87.49
3151.00,87.57
3150.00,87.64
3149.00,87.71
3148.00,87.78
3147.00,87.85
3146.00,87.92
3145.00,87.99
3144.00,88.06
3143.00,88.13
3142.00,88.20
3141.00,88.26
3140.00,88.33
3139.00,88.40
3138.00,88.47
3137.00,88.54
3136.00,88.61
3135.00,88.68
3134.00,88.75
3133.00,88.82
3132.00,88.89
3131.00,88.95
3130.00,89.02
3129.00,89.08
3128.00,89.15
3127.00,89.21
3126.00,89.28
3125.00,89.34
3124.00,89.41
3123.00,89.48
3122.00,89.55
3121.00,89.61
3120.00,89.67
3119.00,89.73
3118.00,89.79
3117.00,89.86
3116.00,89.92
3115.00,89.98
3114.00,90.05
3113.00,90.11
3112.00,90.18
3111.00,90.24
3110.00,90.30
3109.00,90.36
3108.00,90.42
3107.00,90.48
3106.00,90.54
3105.00,90.60
3104.00,90.66
3103.00,90.72
3102.00,90.77
3101.00,90.83
3100.00,90.88
3099.00,90.94
3098.00,90.99
3097.00,91.05
3096.00,91.10
3095.00,91.16
3094.00,91.21
3093.00,91.27
3092.00,91.32
3091.00,91.37
3090.00,91.43
3089.00,91.48
3088.00,91.54
3087.00,91.59
3086.00,91.64
3085.00,91.69
3084.00,91.74
3083.00,91.80
3082.00,91.85
3081.00,91.90
3080.00,91.95
3079.00,91.99
3078.00,92.04
3077.00,92.09
3076.00,92.13
3075.00,92.18
3074.00,92.23
3073.00,92.28
3072.00,92.33
3071.00,92.38
3070.00,92.42
3069.00,92.47
3068.00,92.51
3067.00,92.56
3066.00,92.61
3065.00,92.65
3064.00,92.69
3063.00,92.73
3062.00,92.77
3061.00,92.82
3060.00,92.86
3059.00,92.90
3058.00,92.94
3057.00,92.98
3056.00,93.02
3055.00,93.06
3054.00,93.10
3053.00,93.14
3052.00,93.18
3051.00,93.22
3050.00,93.26
3049.00,93.29
3048.00,93.33
3047.00,93.37
3046.00,93.40
3045.00,93.44
3044.00,93.48
3043.00,93.52
3042.00,93.55
3041.00,93.59
3040.00,93.62
3039.00,93.65
3038.00,93.68
3037.00,93.72
3036.00,93.75
3035.00,93.79
3034.00,93.82
3033.00,93.85
3032.00,93.88
3031.00,93.91
3030.00,93.94
3029.00,93.98
3028.00,94.01
3027.00,94.04
3026.00,94.07
3025.00,94.10
3024.00,94.13
3023.00,94.15
3022.00,94.18
3021.00,94.21
3020.00,94.24
3019.00,94.27
3018.00,94.29
3017.00,94.32
3016.00,94.35
3015.00,94.38
3014.00,94.40
3013.00,94.43
3012.00,94.46
3011.00,94.48
3010.00,94.50
3009.00,94.52
3008.00,94.54
3007.00,94.56
3006.00,94.59
3005.00,94.61
3004.00,94.63
3003.00,94.65
3002.00,94.66
3001.00,94.68
3000.00,94.70
2999.00,94.71
2998.00,94.72
2997.00,94.73
2996.00,94.75
2995.00,94.76
2994.00,94.77
2993.00,94.78
2992.00,94.78
2991.00,94.78
2990.00,94.78
2989.00,94.78
2988.00,94.77
2987.00,94.77
2986.00,94.76
2985.00,94.74
2984.00,94.72
2983.00,94.70
2982.00,94.67
2981.00,94.64
2980.00,94.60
2979.00,94.56
2978.00,94.50
2977.00,94.44
2976.00,94.36
2975.00,94.28
2974.00,94.19
2973.00,94.08
2972.00,93.97
2971.00,93.84
2970.00,93.69
2969.00,93.53
2968.00,93.35
2967.00,93.14
2966.00,92.92
2965.00,92.68
2964.00,92.42
2963.00,92.13
2962.00,91.82
2961.00,91.49
2960.00,91.13
2959.00,90.75
2958.00,90.35
2957.00,89.92
2956.00,89.48
2955.00,89.01
2954.00,88.53
2953.00,88.03
2952.00,87.52
2951.00,87.00
2950.00,86.47
2949.00,85.93
2948.00,85.39
2947.00,84.84
2946.00,84.30
2945.00,83.77
2944.00,83.26
2943.00,82.77
2942.00,82.30
2941.00,81.86
2940.00,81.45
2939.00,81.08
2938.00,80.75
2937.00,80.47
2936.00,80.22
2935.00,80.02
2934.00,79.85
2933.00,79.73
2932.00,79.64
2931.00,79.59
2930.00,79.56
2929.00,79.56
2928.00,79.58
2927.00,79.61
2926.00,79.66
2925.00,79.71
2924.00,79.76
2923.00,79.81
2922.00,79.86
2921.00,79.89
2920.00,79.91
2919.00,79.92
2918.00,79.91
2917.00,79.89
2916.00,79.86
2915.00,79.82
2914.00,79.76
2913.00,79.70
2912.00,79.63
2911.00,79.56
2910.00,79.51
2909.00,79.47
2908.00,79.46
2907.00,79.49
2906.00,79.54
2905.00,79.64
2904.00,79.79
2903.00,79.97
2902.00,80.20
2901.00,80.47
2900.00,80.78
2899.00,81.13
2898.00,81.50
2897.00,81.89
2896.00,82.29
2895.00,82.70
2894.00,83.10
2893.00,83.48
2892.00,83.86
2891.00,84.21
2890.00,84.55
2889.00,84.86
2888.00,85.15
2887.00,85.41
2886.00,85.64
2885.00,85.85
2884.00,86.04
2883.00,86.20
2882.00,86.34
2881.00,86.45
2880.00,86.55
2879.00,86.63
2878.00,86.68
2877.00,86.72
2876.00,86.74
2875.00,86.74
2874.00,86.72
2873.00,86.68
2872.00,86.63
2871.00,86.56
2870.00,86.47
2869.00,86.38
2868.00,86.27
2867.00,86.14
2866.00,86.01
2865.00,85.86
2864.00,85.70
2863.00,85.54
2862.00,85.38
2861.00,85.21
2860.00,85.06
2859.00,84.91
2858.00,84.78
2857.00,84.68
2856.00,84.60
2855.00,84.55
2854.00,84.53
2853.00,84.55
2852.00,84.62
2851.00,84.73
2850.00,84.88
2849.00,85.06
2848.00,85.27
2847.00,85.49
2846.00,85.73
2845.00,85.98
2844.00,86.23
2843.00,86.47
2842.00,86.72
2841.00,86.96
2840.00,87.19
2839.00,87.42
2838.00,87.63
2837.00,87.84
2836.00,88.05
2835.00,88.25
2834.00,88.45
2833.00,88.64
2832.00,88.83
2831.00,89.01
2830.00,89.19
2829.00,89.37
2828.00,89.54
2827.00,89.70
2826.00,89.86
2825.00,90.00
2824.00,90.14
2823.00,90.27
2822.00,90.39
2821.00,90.51
2820.00,90.63
2819.00,90.75
2818.00,90.86
2817.00,90.96
2816.00,91.06
2815.00,91.16
2814.00,91.26
2813.00,91.36
2812.00,91.46
2811.00,91.55
2810.00,91.64
2809.00,91.73
2808.00,91.82
2807.00,91.91
2806.00,91.99
2805.00,92.07
2804.00,92.15
2803.00,92.23
2802.00,92.30
2801.00,92.37
2800.00,92.44
2799.00,92.50
2798.00,92.57
2797.00,92.63
2796.00,92.69
2795.00,92.74
2794.00,92.79
2793.00,92.84
2792.00,92.89
2791.00,92.93
2790.00,92.98
2789.00,93.02
2788.00,93.06
2787.00,93.10
2786.00,93.14
2785.00,93.17
2784.00,93.21
2783.00,93.24
2782.00,93.28
2781.00,93.31
2780.00,93.34
2779.00,93.37
2778.00,93.39
2777.00,93.42
2776.00,93.44
2775.00,93.47
2774.00,93.49
2773.00,93.51
2772.00,93.53
2771.00,93.55
2770.00,93.56
2769.00,93.58
2768.00,93.60
2767.00,93.61
2766.00,93.63
2765.00,93.65
2764.00,93.66
2763.00,93.67
2762.00,93.68
2761.00,93.70
2760.00,93.71
2759.00,93.72
2758.00,93.73
2757.00,93.74
2756.00,93.74
2755.00,93.76
2754.00,93.77
2753.00,93.78
2752.00,93.79
2751.00,93.80
2750.00,93.81
2749.00,93.82
2748.00,93.83
2747.00,93.84
2746.00,93.85
2745.00,93.86
2744.00,93.88
2743.00,93.89
2742.00,93.90
2741.00,93.91
2740.00,93.92
2739.00,93.93
2738.00,93.94
2737.00,93.96
2736.00,93.97
2735.00,93.98
2734.00,94.00
2733.00,94.01
2732.00,94.02
2731.00,94.03
2730.00,94.05
2729.00,94.06
2728.00,94.07
2727.00,94.09
2726.00,94.10
2725.00,94.11
2724.00,94.12
2723.00,94.13
2722.00,94.14
2721.00,94.15
2720.00,94.17
2719.00,94.18
2718.00,94.19
2717.00,94.20
2716.00,94.21
2715.00,94.22
2714.00,94.23
2713.00,94.23
2712.00,94.24
2711.00,94.25
2710.00,94.26
2709.00,94.27
2708.00,94.27
2707.00,94.28
2706.00,94.28
2705.00,94.28
2704.00,94.29
2703.00,94.29
2702.00,94.29
2701.00,94.30
2700.00,94.30
2699.00,94.30
2698.00,94.31
2697.00,94.31
2696.00,94.31
2695.00,94.32
2694.00,94.32
2693.00,94.32
2692.00,94.32
2691.00,94.33
2690.00,94.33
2689.00,94.33
2688.00,94.34
2687.00,94.34
2686.00,94.35
2685.00,94.35
2684.00,94.35
2683.00,94.36
2682.00,94.37
2681.00,94.37
2680.00,94.38
2679.00,94.39
2678.00,94.39
2677.00,94.40
2676.00,94.41
2675.00,94.41
2674.00,94.42
2673.00,94.43
2672.00,94.44
2671.00,94.44
2670.00,94.45
2669.00,94.46
2668.00,94.47
2667.00,94.47
2666.00,94.48
2665.00,94.48
2664.00,94.49
2663.00,94.49
2662.00,94.49
2661.00,94.49
2660.00,94.49
2659.00,94.49
2658.00,94.49
2657.00,94.49
2656.00,94.50
2655.00,94.50
2654.00,94.51
2653.00,94.52
2652.00,94.52
2651.00,94.53
2650.00,94.54
2649.00,94.55
2648.00,94.55
2647.00,94.56
2646.00,94.57
2645.00,94.58
2644.00,94.59
2643.00,94.60
2642.00,94.60
2641.00,94.61
2640.00,94.62
2639.00,94.63
2638.00,94.65
2637.00,94.66
2636.00,94.67
2635.00,94.68
2634.00,94.69
2633.00,94.70
2632.00,94.70
2631.00,94.71
2630.00,94.72
2629.00,94.73
2628.00,94.74
2627.00,94.75
2626.00,94.76
2625.00,94.77
2624.00,94.79
2623.00,94.80
2622.00,94.81
2621.00,94.82
2620.00,94.83
2619.00,94.84
2618.00,94.85
2617.00,94.86
2616.00,94.88
2615.00,94.89
2614.00,94.90
2613.00,94.91
2612.00,94.92
2611.00,94.93
2610.00,94.94
2609.00,94.95
2608.00,94.97
2607.00,94.98
2606.00,94.99
2605.00,95.00
2604.00,95.01
2603.00,95.02
2602.00,95.03
2601.00,95.04
2600.00,95.05
2599.00,95.06
2598.00,95.07
2597.00,95.08
2596.00,95.09
2595.00,95.10
2594.00,95.11
2593.00,95.12
2592.00,95.12
2591.00,95.13
2590.00,95.14
2589.00,95.14
2588.00,95.15
2587.00,95.17
2586.00,95.18
2585.00,95.19
2584.00,95.19
2583.00,95.20
2582.00,95.20
2581.00,95.21
2580.00,95.22
2579.00,95.23
2578.00,95.24
2577.00,95.25
2576.00,95.26
2575.00,95.26
2574.00,95.27
2573.00,95.28
2572.00,95.29
2571.00,95.29
2570.00,95.30
2569.00,95.31
2568.00,95.31
2567.00,95.32
2566.00,95.32
2565.00,95.32
2564.00,95.33
2563.00,95.33
2562.00,95.34
2561.00,95.35
2560.00,95.35
2559.00,95.36
2558.00,95.36
2557.00,95.37
2556.00,95.37
2555.00,95.38
2554.00,95.39
2553.00,95.39
2552.00,95.39
2551.00,95.39
2550.00,95.40
2549.00,95.40
2548.00,95.41
2547.00,95.41
2546.00,95.41
2545.00,95.42
2544.00,95.43
2543.00,95.43
2542.00,95.44
2541.00,95.45
2540.00,95.46
2539.00,95.46
2538.00,95.46
2537.00,95.45
2536.00,95.45
2535.00,95.46
2534.00,95.47
2533.00,95.48
2532.00,95.49
2531.00,95.49
2530.00,95.49
2529.00,95.50
2528.00,95.50
2527.00,95.50
2526.00,95.50
2525.00,95.51
2524.00,95.51
2523.00,95.51
2522.00,95.52
2521.00,95.53
2520.00,95.53
2519.00,95.54
2518.00,95.55
2517.00,95.56
2516.00,95.56
2515.00,95.56
2514.00,95.57
2513.00,95.58
2512.00,95.59
2511.00,95.59
2510.00,95.60
2509.00,95.60
2508.00,95.61
2507.00,95.62
2506.00,95.62
2505.00,95.63
2504.00,95.63
2503.00,95.64
2502.00,95.65
2501.00,95.65
2500.00,95.66
2499.00,95.67
2498.00,95.67
2497.00,95.67
2496.00,95.68
2495.00,95.68
2494.00,95.69
2493.00,95.69
2492.00,95.70
2491.00,95.71
2490.00,95.72
2489.00,95.73
2488.00,95.73
2487.00,95.73
2486.00,95.74
2485.00,95.74
2484.00,95.75
2483.00,95.76
2482.00,95.77
2481.00,95.78
2480.00,95.78
2479.00,95.78
2478.00,95.78
2477.00,95.78
2476.00,95.78
2475.00,95.79
2474.00,95.80
2473.00,95.81
2472.00,95.82
2471.00,95.82
2470.00,95.82
2469.00,95.82
2468.00,95.81
2467.00,95.81
2466.00,95.81
2465.00,95.82
2464.00,95.83
2463.00,95.83
2462.00,95.84
2461.00,95.84
2460.00,95.84
2459.00,95.84
2458.00,95.83
2457.00,95.83
2456.00,95.82
2455.00,95.83
2454.00,95.83
2453.00,95.83
2452.00,95.84
2451.00,95.84
2450.00,95.84
2449.00,95.84
2448.00,95.84
2447.00,95.84
2446.00,95.85
2445.00,95.86
2444.00,95.87
2443.00,95.88
2442.00,95.89
2441.00,95.89
2440.00,95.90
2439.00,95.90
2438.00,95.90
2437.00,95.91
2436.00,95.92
2435.00,95.92
2434.00,95.92
2433.00,95.92
2432.00,95.92
2431.00,95.93
2430.00,95.93
2429.00,95.94
2428.00,95.94
2427.00,95.95
2426.00,95.95
2425.00,95.96
2424.00,95.96
2423.00,95.97
2422.00,95.97
2421.00,95.98
2420.00,95.99
2419.00,95.99
2418.00,95.99
2417.00,95.99
2416.00,96.00
2415.00,96.00
2414.00,96.00
2413.00,96.00
2412.00,96.00
2411.00,96.00
2410.00,96.00
2409.00,96.01
2408.00,96.01
2407.00,96.03
2406.00,96.04
2405.00,96.05
2404.00,96.05
2403.00,96.06
2402.00,96.06
2401.00,96.07
2400.00,96.08
2399.00,96.08
2398.00,96.09
2397.00,96.09
2396.00,96.09
2395.00,96.10
2394.00,96.10
2393.00,96.10
2392.00,96.10
2391.00,96.11
2390.00,96.12
2389.00,96.13
2388.00,96.14
2387.00,96.15
2386.00,96.16
2385.00,96.17
2384.00,96.18
2383.00,96.19
2382.00,96.21
2381.00,96.23
2380.00,96.24
2379.00,96.26
2378.00,96.29
2377.00,96.30
2376.00,96.31
2375.00,96.31
2374.00,96.31
2373.00,96.30
2372.00,96.29
2371.00,96.29
2370.00,96.29
2369.00,96.30
2368.00,96.31
2367.00,96.33
2366.00,96.34
2365.00,96.35
2364.00,96.34
2363.00,96.33
2362.00,96.33
2361.00,96.32
2360.00,96.32
2359.00,96.33
2358.00,96.33
2357.00,96.33
2356.00,96.33
2355.00,96.33
2354.00,96.34
2353.00,96.33
2352.00,96.33
2351.00,96.33
2350.00,96.33
2349.00,96.34
2348.00,96.35
2347.00,96.36
2346.00,96.36
2345.00,96.35
2344.00,96.34
2343.00,96.32
2342.00,96.31
2341.00,96.30
2340.00,96.28
2339.00,96.26
2338.00,96.25
2337.00,96.24
2336.00,96.24
2335.00,96.24
2334.00,96.25
2333.00,96.26
2332.00,96.25
2331.00,96.25
2330.00,96.25
2329.00,96.24
2328.00,96.22
2327.00,96.18
2326.00,96.12
2325.00,96.06
2324.00,96.01
2323.00,95.99
2322.00,96.00
2321.00,96.01
2320.00,96.03
2319.00,96.05
2318.00,96.06
2317.00,96.07
2316.00,96.08
2315.00,96.09
2314.00,96.10
2313.00,96.11
2312.00,96.11
2311.00,96.11
2310.00,96.11
2309.00,96.10
2308.00,96.09
2307.00,96.09
2306.00,96.08
2305.00,96.08
2304.00,96.07
2303.00,96.07
2302.00,96.06
2301.00,96.05
2300.00,96.04
2299.00,96.03
2298.00,96.03
2297.00,96.02
2296.00,96.01
2295.00,96.00
2294.00,95.98
2293.00,95.97
2292.00,95.95
2291.00,95.92
2290.00,95.90
2289.00,95.88
2288.00,95.87
2287.00,95.85
2286.00,95.84
2285.00,95.84
2284.00,95.84
2283.00,95.85
2282.00,95.86
2281.00,95.87
2280.00,95.89
2279.00,95.90
2278.00,95.91
2277.00,95.92
2276.00,95.92
2275.00,95.92
2274.00,95.92
2273.00,95.92
2272.00,95.92
2271.00,95.91
2270.00,95.91
2269.00,95.92
2268.00,95.93
2267.00,95.95
2266.00,95.96
2265.00,95.97
2264.00,95.97
2263.00,95.97
2262.00,95.97
2261.00,95.96
2260.00,95.95
2259.00,95.93
2258.00,95.93
2257.00,95.92
2256.00,95.93
2255.00,95.95
2254.00,95.97
2253.00,95.99
2252.00,95.99
2251.00,95.99
2250.00,95.98
2249.00,95.97
2248.00,95.97
2247.00,95.96
2246.00,95.96
2245.00,95.95
2244.00,95.95
2243.00,95.94
2242.00,95.94
2241.00,95.94
2240.00,95.94
2239.00,95.95
2238.00,95.95
2237.00,95.94
2236.00,95.94
2235.00,95.93
2234.00,95.93
2233.00,95.93
2232.00,95.93
2231.00,95.93
2230.00,95.93
2229.00,95.92
2228.00,95.92
2227.00,95.93
2226.00,95.94
2225.00,95.94
2224.00,95.93
2223.00,95.92
2222.00,95.91
2221.00,95.91
2220.00,95.92
2219.00,95.93
2218.00,95.94
2217.00,95.94
2216.00,95.93
2215.00,95.92
2214.00,95.92
2213.00,95.92
2212.00,95.92
2211.00,95.92
2210.00,95.92
2209.00,95.92
2208.00,95.91
2207.00,95.90
2206.00,95.90
2205.00,95.89
2204.00,95.88
2203.00,95.86
2202.00,95.85
2201.00,95.85
2200.00,95.84
2199.00,95.84
2198.00,95.83
2197.00,95.82
2196.00,95.80
2195.00,95.79
2194.00,95.78
2193.00,95.77
2192.00,95.76
2191.00,95.76
2190.00,95.76
2189.00,95.75
2188.00,95.73
2187.00,95.72
2186.00,95.71
2185.00,95.71
2184.00,95.72
2183.00,95.75
2182.00,95.79
2181.00,95.82
2180.00,95.83
2179.00,95.83
2178.00,95.82
2177.00,95.82
2176.00,95.83
2175.00,95.85
2174.00,95.86
2173.00,95.85
2172.00,95.81
2171.00,95.75
2170.00,95.70
2169.00,95.64
2168.00,95.60
2167.00,95.58
2166.00,95.57
2165.00,95.55
2164.00,95.52
2163.00,95.47
2162.00,95.43
2161.00,95.45
2160.00,95.59
2159.00,95.83
2158.00,96.10
2157.00,96.29
2156.00,96.38
2155.00,96.39
2154.00,96.37
2153.00,96.32
2152.00,96.27
2151.00,96.22
2150.00,96.19
2149.00,96.17
2148.00,96.17
2147.00,96.19
2146.00,96.22
2145.00,96.23
2144.00,96.24
2143.00,96.24
2142.00,96.24
2141.00,96.23
2140.00,96.22
2139.00,96.22
2138.00,96.23
2137.00,96.24
2136.00,96.27
2135.00,96.32
2134.00,96.36
2133.00,96.39
2132.00,96.38
2131.00,96.36
2130.00,96.34
2129.00,96.31
2128.00,96.29
2127.00,96.28
2126.00,96.27
2125.00,96.25
2124.00,96.23
2123.00,96.21
2122.00,96.19
2121.00,96.17
2120.00,96.15
2119.00,96.14
2118.00,96.12
2117.00,96.11
2116.00,96.08
2115.00,96.06
2114.00,96.03
2113.00,96.01
2112.00,96.00
2111.00,96.00
2110.00,96.01
2109.00,96.01
2108.00,96.02
2107.00,96.02
2106.00,96.03
2105.00,96.04
2104.00,96.04
2103.00,96.04
2102.00,96.03
2101.00,96.03
2100.00,96.03
2099.00,96.04
2098.00,96.05
2097.00,96.07
2096.00,96.09
2095.00,96.12
2094.00,96.14
2093.00,96.14
2092.00,96.13
2091.00,96.11
2090.00,96.10
2089.00,96.08
2088.00,96.07
2087.00,96.05
2086.00,96.04
2085.00,96.02
2084.00,96.01
2083.00,96.00
2082.00,96.00
2081.00,96.00
2080.00,96.00
2079.00,96.00
2078.00,96.00
2077.00,95.99
2076.00,95.99
2075.00,95.99
2074.00,95.99
2073.00,95.99
2072.00,95.99
2071.00,96.00
2070.00,96.00
2069.00,96.00
2068.00,96.00
2067.00,96.00
2066.00,96.00
2065.00,95.99
2064.00,95.99
2063.00,95.98
2062.00,95.99
2061.00,95.98
2060.00,95.97
2059.00,95.97
2058.00,95.96
2057.00,95.95
2056.00,95.94
2055.00,95.94
2054.00,95.93
2053.00,95.89
2052.00,95.81
2051.00,95.73
2050.00,95.71
2049.00,95.73
2048.00,95.78
2047.00,95.82
2046.00,95.84
2045.00,95.86
2044.00,95.86
2043.00,95.85
2042.00,95.83
2041.00,95.81
2040.00,95.79
2039.00,95.77
2038.00,95.76
2037.00,95.75
2036.00,95.74
2035.00,95.76
2034.00,95.80
2033.00,95.83
2032.00,95.86
2031.00,95.88
2030.00,95.89
2029.00,95.89
2028.00,95.89
2027.00,95.89
2026.00,95.91
2025.00,95.94
2024.00,95.97
2023.00,95.99
2022.00,96.00
2021.00,96.00
2020.00,95.99
2019.00,95.99
2018.00,95.99
2017.00,95.98
2016.00,95.97
2015.00,95.96
2014.00,95.96
2013.00,95.96
2012.00,95.95
2011.00,95.94
2010.00,95.93
2009.00,95.94
2008.00,95.97
2007.00,96.02
2006.00,96.08
2005.00,96.12
2004.00,96.13
2003.00,96.11
2002.00,96.09
2001.00,96.07
2000.00,96.04
1999.00,96.02
1998.00,96.00
1997.00,95.98
1996.00,95.96
1995.00,95.95
1994.00,95.94
1993.00,95.92
1992.00,95.91
1991.00,95.89
1990.00,95.87
1989.00,95.85
1988.00,95.84
1987.00,95.82
1986.00,95.81
1985.00,95.78
1984.00,95.75
1983.00,95.71
1982.00,95.67
1981.00,95.62
1980.00,95.59
1979.00,95.62
1978.00,95.70
1977.00,95.81
1976.00,95.91
1975.00,95.97
1974.00,96.01
1973.00,96.03
1972.00,96.03
1971.00,96.03
1970.00,96.03
1969.00,96.02
1968.00,96.00
1967.00,95.99
1966.00,96.00
1965.00,96.01
1964.00,96.02
1963.00,96.04
1962.00,96.07
1961.00,96.09
1960.00,96.12
1959.00,96.15
1958.00,96.17
1957.00,96.17
1956.00,96.15
1955.00,96.13
1954.00,96.11
1953.00,96.10
1952.00,96.09
1951.00,96.10
1950.00,96.10
1949.00,96.11
1948.00,96.12
1947.00,96.13
1946.00,96.14
1945.00,96.14
1944.00,96.14
1943.00,96.13
1942.00,96.12
1941.00,96.11
1940.00,96.12
1939.00,96.12
1938.00,96.13
1937.00,96.14
1936.00,96.14
1935.00,96.14
1934.00,96.15
1933.00,96.15
1932.00,96.15
1931.00,96.15
1930.00,96.15
1929.00,96.15
1928.00,96.15
1927.00,96.16
1926.00,96.16
1925.00,96.17
1924.00,96.17
1923.00,96.17
1922.00,96.16
1921.00,96.14
1920.00,96.13
1919.00,96.12
1918.00,96.13
1917.00,96.13
1916.00,96.14
1915.00,96.15
1914.00,96.16
1913.00,96.16
1912.00,96.15
1911.00,96.15
1910.00,96.15
1909.00,96.16
1908.00,96.16
1907.00,96.17
1906.00,96.17
1905.00,96.17
1904.00,96.16
1903.00,96.16
1902.00,96.16
1901.00,96.16
1900.00,96.15
1899.00,96.15
1898.00,96.15
1897.00,96.15
1896.00,96.15
1895.00,96.16
1894.00,96.17
1893.00,96.18
1892.00,96.19
1891.00,96.19
1890.00,96.20
1889.00,96.20
1888.00,96.19
1887.00,96.19
1886.00,96.20
1885.00,96.20
1884.00,96.20
1883.00,96.20
1882.00,96.20
1881.00,96.20
1880.00,96.20
1879.00,96.20
1878.00,96.20
1877.00,96.21
1876.00,96.22
1875.00,96.23
1874.00,96.23
1873.00,96.23
1872.00,96.22
1871.00,96.22
1870.00,96.21
1869.00,96.21
1868.00,96.22
1867.00,96.23
1866.00,96.23
1865.00,96.23
1864.00,96.23
1863.00,96.23
1862.00,96.23
1861.00,96.23
1860.00,96.23
1859.00,96.23
1858.00,96.24
1857.00,96.25
1856.00,96.25
1855.00,96.25
1854.00,96.26
1853.00,96.26
1852.00,96.26
1851.00,96.26
1850.00,96.25
1849.00,96.25
1848.00,96.24
1847.00,96.24
1846.00,96.25
1845.00,96.25
1844.00,96.25
1843.00,96.26
1842.00,96.26
1841.00,96.27
1840.00,96.27
1839.00,96.27
1838.00,96.28
1837.00,96.28
1836.00,96.28
1835.00,96.29
1834.00,96.29
1833.00,96.28
1832.00,96.28
1831.00,96.28
1830.00,96.29
1829.00,96.29
1828.00,96.28
1827.00,96.28
1826.00,96.28
1825.00,96.28
1824.00,96.27
1823.00,96.27
1822.00,96.28
1821.00,96.28
1820.00,96.29
1819.00,96.31
1818.00,96.33
1817.00,96.35
1816.00,96.36
1815.00,96.36
1814.00,96.35
1813.00,96.35
1812.00,96.34
1811.00,96.33
1810.00,96.33
1809.00,96.32
1808.00,96.31
1807.00,96.31
1806.00,96.31
1805.00,96.31
1804.00,96.30
1803.00,96.30
1802.00,96.30
1801.00,96.30
1800.00,96.30
1799.00,96.30
1798.00,96.30
1797.00,96.29
1796.00,96.29
1795.00,96.29
1794.00,96.29
1793.00,96.28
1792.00,96.28
1791.00,96.27
1790.00,96.27
1789.00,96.26
1788.00,96.26
1787.00,96.25
1786.00,96.25
1785.00,96.23
1784.00,96.22
1783.00,96.21
1782.00,96.20
1781.00,96.19
1780.00,96.18
1779.00,96.17
1778.00,96.16
1777.00,96.15
1776.00,96.14
1775.00,96.13
1774.00,96.11
1773.00,96.10
1772.00,96.08
1771.00,96.06
1770.00,96.04
1769.00,96.02
1768.00,96.00
1767.00,95.98
1766.00,95.97
1765.00,95.95
1764.00,95.93
1763.00,95.91
1762.00,95.89
1761.00,95.88
1760.00,95.86
1759.00,95.85
1758.00,95.85
1757.00,95.84
1756.00,95.83
1755.00,95.82
1754.00,95.82
1753.00,95.82
1752.00,95.81
1751.00,95.82
1750.00,95.84
1749.00,95.85
1748.00,95.85
1747.00,95.86
1746.00,95.87
1745.00,95.88
1744.00,95.88
1743.00,95.89
1742.00,95.89
1741.00,95.90
1740.00,95.90
1739.00,95.90
1738.00,95.90
1737.00,95.90
1736.00,95.90
1735.00,95.90
1734.00,95.91
1733.00,95.91
1732.00,95.91
1731.00,95.91
1730.00,95.91
1729.00,95.90
1728.00,95.90
1727.00,95.90
1726.00,95.90
1725.00,95.89
1724.00,95.89
1723.00,95.88
1722.00,95.87
1721.00,95.87
1720.00,95.86
1719.00,95.85
1718.00,95.84
1717.00,95.82
1716.00,95.81
1715.00,95.80
1714.00,95.80
1713.00,95.79
1712.00,95.79
1711.00,95.79
1710.00,95.78
1709.00,95.78
1708.00,95.78
1707.00,95.78
1706.00,95.78
1705.00,95.77
1704.00,95.76
1703.00,95.75
1702.00,95.74
1701.00,95.73
1700.00,95.73
1699.00,95.72
1698.00,95.71
1697.00,95.70
1696.00,95.69
1695.00,95.68
1694.00,95.67
1693.00,95.66
1692.00,95.65
1691.00,95.63
1690.00,95.61
1689.00,95.59
1688.00,95.57
1687.00,95.55
1686.00,95.54
1685.00,95.51
1684.00,95.48
1683.00,95.45
1682.00,95.42
1681.00,95.40
1680.00,95.37
1679.00,95.35
1678.00,95.33
1677.00,95.30
1676.00,95.27
1675.00,95.24
1674.00,95.22
1673.00,95.21
1672.00,95.19
1671.00,95.17
1670.00,95.15
1669.00,95.12
1668.00,95.10
1667.00,95.09
1666.00,95.08
1665.00,95.07
1664.00,95.06
1663.00,95.05
1662.00,95.04
1661.00,95.03
1660.00,95.02
1659.00,95.02
1658.00,95.02
1657.00,95.01
1656.00,95.01
1655.00,95.01
1654.00,95.01
1653.00,95.01
1652.00,95.01
1651.00,95.02
1650.00,95.04
1649.00,95.05
1648.00,95.05
1647.00,95.05
1646.00,95.06
1645.00,95.07
1644.00,95.08
1643.00,95.09
1642.00,95.10
1641.00,95.12
1640.00,95.12
1639.00,95.14
1638.00,95.15
1637.00,95.17
1636.00,95.19
1635.00,95.21
1634.00,95.23
1633.00,95.24
1632.00,95.26
1631.00,95.28
1630.00,95.31
1629.00,95.33
1628.00,95.35
1627.00,95.37
1626.00,95.39
1625.00,95.41
1624.00,95.43
1623.00,95.45
1622.00,95.47
1621.00,95.48
1620.00,95.49
1619.00,95.51
1618.00,95.53
1617.00,95.56
1616.00,95.57
1615.00,95.59
1614.00,95.61
1613.00,95.62
1612.00,95.63
1611.00,95.65
1610.00,95.66
1609.00,95.68
1608.00,95.69
1607.00,95.70
1606.00,95.71
1605.00,95.71
1604.00,95.71
1603.00,95.72
1602.00,95.73
1601.00,95.74
1600.00,95.74
1599.00,95.75
1598.00,95.75
1597.00,95.75
1596.00,95.75
1595.00,95.75
1594.00,95.75
1593.00,95.75
1592.00,95.75
1591.00,95.75
1590.00,95.76
1589.00,95.75
1588.00,95.75
1587.00,95.74
1586.00,95.74
1585.00,95.73
1584.00,95.72
1583.00,95.72
1582.00,95.71
1581.00,95.71
1580.00,95.70
1579.00,95.69
1578.00,95.69
1577.00,95.68
1576.00,95.67
1575.00,95.67
1574.00,95.67
1573.00,95.66
1572.00,95.66
1571.00,95.65
1570.00,95.65
1569.00,95.64
1568.00,95.63
1567.00,95.63
1566.00,95.63
1565.00,95.62
1564.00,95.62
1563.00,95.61
1562.00,95.61
1561.00,95.62
1560.00,95.61
1559.00,95.61
1558.00,95.61
1557.00,95.61
1556.00,95.60
1555.00,95.61
1554.00,95.61
1553.00,95.61
1552.00,95.61
1551.00,95.60
1550.00,95.60
1549.00,95.60
1548.00,95.60
1547.00,95.60
1546.00,95.61
1545.00,95.60
1544.00,95.60
1543.00,95.60
1542.00,95.60
1541.00,95.59
1540.00,95.58
1539.00,95.57
1538.00,95.58
1537.00,95.57
1536.00,95.56
1535.00,95.56
1534.00,95.55
1533.00,95.53
1532.00,95.52
1531.00,95.51
1530.00,95.50
1529.00,95.49
1528.00,95.47
1527.00,95.46
1526.00,95.45
1525.00,95.43
1524.00,95.41
1523.00,95.39
1522.00,95.37
1521.00,95.34
1520.00,95.31
1519.00,95.30
1518.00,95.28
1517.00,95.24
1516.00,95.20
1515.00,95.18
1514.00,95.16
1513.00,95.13
1512.00,95.09
1511.00,95.06
1510.00,95.03
1509.00,94.99
1508.00,94.92
1507.00,94.84
1506.00,94.77
1505.00,94.72
1504.00,94.67
1503.00,94.63
1502.00,94.58
1501.00,94.51
1500.00,94.42
1499.00,94.34
1498.00,94.26
1497.00,94.15
1496.00,94.03
1495.00,93.92
1494.00,93.83
1493.00,93.73
1492.00,93.60
1491.00,93.45
1490.00,93.29
1489.00,93.11
1488.00,92.93
1487.00,92.77
1486.00,92.61
1485.00,92.44
1484.00,92.26
1483.00,92.08
1482.00,91.87
1481.00,91.65
1480.00,91.42
1479.00,91.21
1478.00,90.99
1477.00,90.72
1476.00,90.43
1475.00,90.14
1474.00,89.78
1473.00,89.30
1472.00,88.77
1471.00,88.29
1470.00,87.85
1469.00,87.42
1468.00,86.98
1467.00,86.54
1466.00,86.07
1465.00,85.57
1464.00,85.11
1463.00,84.74
1462.00,84.44
1461.00,84.16
1460.00,83.90
1459.00,83.64
1458.00,83.37
1457.00,83.10
1456.00,82.95
1455.00,82.90
1454.00,82.90
1453.00,82.89
1452.00,82.88
1451.00,82.87
1450.00,82.86
1449.00,82.81
1448.00,82.76
1447.00,82.71
1446.00,82.66
1445.00,82.59
1444.00,82.52
1443.00,82.44
1442.00,82.36
1441.00,82.28
1440.00,82.21
1439.00,82.14
1438.00,82.07
1437.00,81.97
1436.00,81.89
1435.00,81.85
1434.00,81.84
1433.00,81.82
1432.00,81.81
1431.00,81.80
1430.00,81.80
1429.00,81.80
1428.00,81.81
1427.00,81.83
1426.00,81.84
1425.00,81.84
1424.00,81.85
1423.00,81.87
1422.00,81.89
1421.00,81.90
1420.00,81.91
1419.00,81.94
1418.00,81.98
1417.00,82.02
1416.00,82.09
1415.00,82.17
1414.00,82.26
1413.00,82.35
1412.00,82.45
1411.00,82.58
1410.00,82.72
1409.00,82.86
1408.00,83.01
1407.00,83.19
1406.00,83.39
1405.00,83.60
1404.00,83.84
1403.00,84.09
1402.00,84.33
1401.00,84.59
1400.00,84.88
1399.00,85.20
1398.00,85.51
1397.00,85.81
1396.00,86.12
1395.00,86.45
1394.00,86.77
1393.00,87.04
1392.00,87.29
1391.00,87.49
1390.00,87.67
1389.00,87.80
1388.00,87.89
1387.00,87.93
1386.00,87.92
1385.00,87.86
1384.00,87.77
1383.00,87.65
1382.00,87.50
1381.00,87.32
1380.00,87.14
1379.00,86.97
1378.00,86.81
1377.00,86.67
1376.00,86.54
1375.00,86.43
1374.00,86.33
1373.00,86.27
1372.00,86.23
1371.00,86.21
1370.00,86.19
1369.00,86.18
1368.00,86.18
1367.00,86.18
1366.00,86.18
1365.00,86.17
1364.00,86.15
1363.00,86.11
1362.00,86.05
1361.00,85.99
1360.00,85.91
1359.00,85.83
1358.00,85.74
1357.00,85.62
1356.00,85.50
1355.00,85.36
1354.00,85.22
1353.00,85.07
1352.00,84.91
1351.00,84.75
1350.00,84.58
1349.00,84.41
1348.00,84.23
1347.00,84.05
1346.00,83.86
1345.00,83.68
1344.00,83.50
1343.00,83.33
1342.00,83.16
1341.00,82.98
1340.00,82.79
1339.00,82.61
1338.00,82.45
1337.00,82.32
1336.00,82.20
1335.00,82.11
1334.00,82.02
1333.00,81.93
1332.00,81.85
1331.00,81.78
1330.00,81.72
1329.00,81.67
1328.00,81.64
1327.00,81.62
1326.00,81.61
1325.00,81.61
1324.00,81.62
1323.00,81.65
1322.00,81.69
1321.00,81.75
1320.00,81.81
1319.00,81.88
1318.00,81.97
1317.00,82.06
1316.00,82.16
1315.00,82.26
1314.00,82.37
1313.00,82.48
1312.00,82.60
1311.00,82.72
1310.00,82.83
1309.00,82.95
1308.00,83.06
1307.00,83.17
1306.00,83.28
1305.00,83.39
1304.00,83.50
1303.00,83.60
1302.00,83.71
1301.00,83.82
1300.00,83.94
1299.00,84.05
1298.00,84.16
1297.00,84.28
1296.00,84.40
1295.00,84.52
1294.00,84.65
1293.00,84.77
1292.00,84.89
1291.00,85.01
1290.00,85.13
1289.00,85.25
1288.00,85.36
1287.00,85.48
1286.00,85.60
1285.00,85.71
1284.00,85.81
1283.00,85.91
1282.00,86.01
1281.00,86.11
1280.00,86.20
1279.00,86.30
1278.00,86.39
1277.00,86.48
1276.00,86.57
1275.00,86.66
1274.00,86.75
1273.00,86.83
1272.00,86.92
1271.00,87.01
1270.00,87.09
1269.00,87.17
1268.00,87.26
1267.00,87.35
1266.00,87.45
1265.00,87.55
1264.00,87.65
1263.00,87.75
1262.00,87.85
1261.00,87.96
1260.00,88.07
1259.00,88.19
1258.00,88.31
1257.00,88.43
1256.00,88.55
1255.00,88.68
1254.00,88.79
1253.00,88.91
1252.00,89.02
1251.00,89.13
1250.00,89.23
1249.00,89.32
1248.00,89.40
1247.00,89.47
1246.00,89.53
1245.00,89.57
1244.00,89.60
1243.00,89.63
1242.00,89.64
1241.00,89.64
1240.00,89.64
1239.00,89.64
1238.00,89.62
1237.00,89.61
1236.00,89.59
1235.00,89.57
1234.00,89.55
1233.00,89.53
1232.00,89.51
1231.00,89.49
1230.00,89.47
1229.00,89.45
1228.00,89.43
1227.00,89.41
1226.00,89.39
1225.00,89.38
1224.00,89.38
1223.00,89.39
1222.00,89.40
1221.00,89.41
1220.00,89.43
1219.00,89.44
1218.00,89.45
1217.00,89.46
1216.00,89.48
1215.00,89.49
1214.00,89.51
1213.00,89.53
1212.00,89.55
1211.00,89.58
1210.00,89.61
1209.00,89.64
1208.00,89.67
1207.00,89.70
1206.00,89.74
1205.00,89.76
1204.00,89.79
1203.00,89.81
1202.00,89.82
1201.00,89.84
1200.00,89.85
1199.00,89.87
1198.00,89.89
1197.00,89.90
1196.00,89.92
1195.00,89.92
1194.00,89.93
1193.00,89.93
1192.00,89.93
1191.00,89.95
1190.00,89.96
1189.00,89.97
1188.00,90.00
1187.00,90.02
1186.00,90.04
1185.00,90.06
1184.00,90.08
1183.00,90.10
1182.00,90.13
1181.00,90.16
1180.00,90.20
1179.00,90.24
1178.00,90.27
1177.00,90.31
1176.00,90.34
1175.00,90.38
1174.00,90.42
1173.00,90.46
1172.00,90.49
1171.00,90.52
1170.00,90.54
1169.00,90.56
1168.00,90.57
1167.00,90.58
1166.00,90.59
1165.00,90.58
1164.00,90.57
1163.00,90.55
1162.00,90.52
1161.00,90.47
1160.00,90.39
1159.00,90.30
1158.00,90.17
1157.00,89.99
1156.00,89.76
1155.00,89.47
1154.00,89.12
1153.00,88.71
1152.00,88.22
1151.00,87.67
1150.00,87.04
1149.00,86.36
1148.00,85.63
1147.00,84.87
1146.00,84.10
1145.00,83.33
1144.00,82.59
1143.00,81.93
1142.00,81.35
1141.00,80.86
1140.00,80.47
1139.00,80.17
1138.00,79.97
1137.00,79.84
1136.00,79.76
1135.00,79.71
1134.00,79.68
1133.00,79.64
1132.00,79.59
1131.00,79.53
1130.00,79.45
1129.00,79.36
1128.00,79.24
1127.00,79.10
1126.00,78.93
1125.00,78.75
1124.00,78.55
1123.00,78.33
1122.00,78.11
1121.00,77.88
1120.00,77.64
1119.00,77.42
1118.00,77.20
1117.00,76.99
1116.00,76.79
1115.00,76.61
1114.00,76.46
1113.00,76.31
1112.00,76.17
1111.00,76.03
1110.00,75.90
1109.00,75.77
1108.00,75.62
1107.00,75.48
1106.00,75.32
1105.00,75.15
1104.00,74.96
1103.00,74.76
1102.00,74.55
1101.00,74.32
1100.00,74.08
1099.00,73.84
1098.00,73.59
1097.00,73.35
1096.00,73.12
1095.00,72.90
1094.00,72.69
1093.00,72.50
1092.00,72.32
1091.00,72.17
1090.00,72.06
1089.00,71.95
1088.00,71.87
1087.00,71.81
1086.00,71.77
1085.00,71.74
1084.00,71.73
1083.00,71.74
1082.00,71.77
1081.00,71.81
1080.00,71.86
1079.00,71.92
1078.00,71.99
1077.00,72.05
1076.00,72.12
1075.00,72.20
1074.00,72.30
1073.00,72.39
1072.00,72.48
1071.00,72.57
1070.00,72.68
1069.00,72.79
1068.00,72.90
1067.00,73.02
1066.00,73.16
1065.00,73.30
1064.00,73.44
1063.00,73.59
1062.00,73.75
1061.00,73.90
1060.00,74.05
1059.00,74.20
1058.00,74.35
1057.00,74.49
1056.00,74.61
1055.00,74.73
1054.00,74.85
1053.00,74.94
1052.00,75.03
1051.00,75.12
1050.00,75.21
1049.00,75.29
1048.00,75.36
1047.00,75.42
1046.00,75.48
1045.00,75.53
1044.00,75.58
1043.00,75.64
1042.00,75.71
1041.00,75.78
1040.00,75.84
1039.00,75.91
1038.00,75.99
1037.00,76.06
1036.00,76.13
1035.00,76.20
1034.00,76.28
1033.00,76.35
1032.00,76.42
1031.00,76.48
1030.00,76.55
1029.00,76.60
1028.00,76.64
1027.00,76.69
1026.00,76.74
1025.00,76.79
1024.00,76.84
1023.00,76.89
1022.00,76.95
1021.00,77.00
1020.00,77.07
1019.00,77.14
1018.00,77.23
1017.00,77.31
1016.00,77.40
1015.00,77.50
1014.00,77.60
1013.00,77.71
1012.00,77.83
1011.00,77.95
1010.00,78.09
1009.00,78.22
1008.00,78.34
1007.00,78.47
1006.00,78.60
1005.00,78.73
1004.00,78.86
1003.00,79.00
1002.00,79.12
1001.00,79.25
1000.00,79.36
999.00,79.48
998.00,79.59
997.00,79.70
996.00,79.80
995.00,79.90
994.00,80.00
993.00,80.10
992.00,80.19
991.00,80.28
990.00,80.38
989.00,80.49
988.00,80.60
987.00,80.71
986.00,80.83
985.00,80.95
984.00,81.07
983.00,81.19
982.00,81.32
981.00,81.44
980.00,81.57
979.00,81.71
978.00,81.85
977.00,81.99
976.00,82.13
975.00,82.26
974.00,82.39
973.00,82.52
972.00,82.65
971.00,82.78
970.00,82.92
969.00,83.04
968.00,83.16
967.00,83.28
966.00,83.39
965.00,83.50
964.00,83.61
963.00,83.72
962.00,83.83
961.00,83.93
960.00,84.03
959.00,84.13
958.00,84.22
957.00,84.31
956.00,84.40
955.00,84.49
954.00,84.57
953.00,84.66
952.00,84.73
951.00,84.80
950.00,84.87
949.00,84.93
948.00,84.98
947.00,85.03
946.00,85.07
945.00,85.11
944.00,85.14
943.00,85.16
942.00,85.18
941.00,85.20
940.00,85.22
939.00,85.23
938.00,85.24
937.00,85.24
936.00,85.24
935.00,85.23
934.00,85.22
933.00,85.21
932.00,85.20
931.00,85.19
930.00,85.17
929.00,85.15
928.00,85.12
927.00,85.08
926.00,85.05
925.00,85.02
924.00,84.99
923.00,84.96
922.00,84.92
921.00,84.87
920.00,84.82
919.00,84.78
918.00,84.75
917.00,84.71
916.00,84.68
915.00,84.64
914.00,84.62
913.00,84.60
912.00,84.58
911.00,84.58
910.00,84.57
909.00,84.57
908.00,84.55
907.00,84.54
906.00,84.53
905.00,84.52
904.00,84.51
903.00,84.50
902.00,84.49
901.00,84.48
900.00,84.47
899.00,84.45
898.00,84.44
897.00,84.43
896.00,84.43
895.00,84.44
894.00,84.45
893.00,84.48
892.00,84.50
891.00,84.54
890.00,84.57
889.00,84.62
888.00,84.67
887.00,84.72
886.00,84.79
885.00,84.86
884.00,84.93
883.00,85.01
882.00,85.10
881.00,85.19
880.00,85.27
879.00,85.34
878.00,85.41
877.00,85.49
876.00,85.56
875.00,85.62
874.00,85.67
873.00,85.69
872.00,85.68
871.00,85.64
870.00,85.55
869.00,85.41
868.00,85.21
867.00,84.95
866.00,84.64
865.00,84.28
864.00,83.87
863.00,83.42
862.00,82.95
861.00,82.47
860.00,81.97
859.00,81.47
858.00,80.98
857.00,80.50
856.00,80.02
855.00,79.56
854.00,79.12
853.00,78.71
852.00,78.33
851.00,77.98
850.00,77.68
849.00,77.41
848.00,77.18
847.00,76.99
846.00,76.83
845.00,76.71
844.00,76.61
843.00,76.54
842.00,76.49
841.00,76.44
840.00,76.40
839.00,76.36
838.00,76.32
837.00,76.26
836.00,76.19
835.00,76.11
834.00,76.02
833.00,75.94
832.00,75.88
831.00,75.82
830.00,75.79
829.00,75.77
828.00,75.77
827.00,75.80
826.00,75.86
825.00,75.95
824.00,76.05
823.00,76.21
822.00,76.41
821.00,76.64
820.00,76.91
819.00,77.20
818.00,77.51
817.00,77.83
816.00,78.14
815.00,78.47
814.00,78.82
813.00,79.16
812.00,79.52
811.00,79.87
810.00,80.22
809.00,80.56
808.00,80.88
807.00,81.19
806.00,81.48
805.00,81.75
804.00,81.98
803.00,82.20
802.00,82.39
801.00,82.56
800.00,82.71
799.00,82.84
798.00,82.96
797.00,83.06
796.00,83.13
795.00,83.18
794.00,83.22
793.00,83.26
792.00,83.29
791.00,83.30
790.00,83.31
789.00,83.31
788.00,83.30
787.00,83.28
786.00,83.25
785.00,83.21
784.00,83.16
783.00,83.12
782.00,83.08
781.00,83.03
780.00,82.98
779.00,82.92
778.00,82.87
777.00,82.81
776.00,82.75
775.00,82.69
774.00,82.62
773.00,82.56
772.00,82.48
771.00,82.41
770.00,82.33
769.00,82.26
768.00,82.19
767.00,82.12
766.00,82.06
765.00,81.98
764.00,81.90
763.00,81.82
762.00,81.74
761.00,81.66
760.00,81.57
759.00,81.47
758.00,81.37
757.00,81.28
756.00,81.19
755.00,81.10
754.00,81.01
753.00,80.91
752.00,80.80
751.00,80.69
750.00,80.57
749.00,80.45
748.00,80.32
747.00,80.19
746.00,80.07
745.00,79.95
744.00,79.82
743.00,79.70
742.00,79.59
741.00,79.48
740.00,79.38
739.00,79.29
738.00,79.20
737.00,79.10
736.00,78.99
735.00,78.89
734.00,78.78
733.00,78.68
732.00,78.56
731.00,78.45
730.00,78.33
729.00,78.22
728.00,78.10
727.00,78.00
726.00,77.90
725.00,77.81
724.00,77.74
723.00,77.69
722.00,77.65
721.00,77.62
720.00,77.59
719.00,77.57
718.00,77.56
717.00,77.53
716.00,77.50
715.00,77.46
714.00,77.43
713.00,77.40
712.00,77.36
711.00,77.31
710.00,77.26
709.00,77.20
708.00,77.13
707.00,77.07
706.00,77.02
705.00,76.95
704.00,76.88
703.00,76.81
702.00,76.75
701.00,76.68
700.00,76.61
699.00,76.53
698.00,76.46
697.00,76.37
696.00,76.28
695.00,76.20
694.00,76.13
693.00,76.06
692.00,75.97
691.00,75.89
690.00,75.81
689.00,75.72
688.00,75.63
687.00,75.55
686.00,75.49
685.00,75.43
684.00,75.36
683.00,75.29
682.00,75.22
681.00,75.14
680.00,75.04
679.00,74.94
678.00,74.86
677.00,74.78
676.00,74.70
675.00,74.64
674.00,74.58
673.00,74.51
672.00,74.44
671.00,74.39
670.00,74.36
669.00,74.27
668.00,74.05
667.00,73.85
666.00,73.76
665.00,73.73
664.00,73.69
663.00,73.63
662.00,73.57
661.00,73.48
660.00,73.37
659.00,73.28
658.00,73.22
657.00,73.19
656.00,73.15
655.00,73.11
654.00,73.05
653.00,72.95
652.00,72.85
651.00,72.77
650.00,72.72
